1480251632.00
64.000000
-0.00
-0.00
-0.00
-0.00
-0.00
-0.00
-0.00
-0.00
-0.00
-0.00
0.00
0.01
0.01
-0.00
-0.03
-0.05
-0.05
0.00
0.13
0.36
0.66
1.01
1.37
1.72
2.06
2.40
2.79
3.24
3.80
4.42
5.06
5.66
6.20
6.68
7.15
7.68
8.31
9.14
10.09
11.04
11.88
12.56
13.14
13.76
14.65
15.96
17.91
20.32
22.90
25.38
27.58
29.57
31.68
34.32
37.81
42.54
48.15
54.10
59.83
64.97
69.58
74.14
79.34
85.71
93.76
103.00
112.62
121.73
129.77
136.75
143.30
150.75
157.77
166.64
177.95
191.79
206.97
220.57
228.25
225.36
208.53
176.87
132.76
80.05
23.07
-34.94
-92.44
-149.16
-205.23
-260.37
-313.74
-363.87
-409.83
-450.91
-486.50
-515.74
-537.23
-549.22
-549.96
-538.37
-514.21
-478.67
-433.88
-382.45
-327.02
-269.84
-212.63
-156.66
-102.95
-52.37
-5.90
35.58
71.43
101.35
125.50
144.38
158.69
169.15
176.37
180.75
182.57
182.07
179.51
175.23
169.65
163.18
156.15
148.81
141.30
133.69
126.02
118.33
110.69
103.16
95.80
88.68
81.83
75.25
68.95
62.95
57.25
51.86
46.78
42.03
37.59
33.45
29.61
26.07
22.81
19.83
17.11
14.67
12.48
10.54
8.83
7.35
6.07
4.97
4.05
3.27
2.62
2.09
1.65
1.30
1.01
0.79
0.61
0.48
0.37
0.29
0.22
0.18
0.14
0.11
0.09
0.08
0.07
0.06
0.05
0.05
0.04
0.04
0.04
0.03
0.03
0.03
0.03
0.03
0.03
0.03
0.02
0.02
0.02
0.02
0.02
0.02
0.02
0.02
0.02
0.02
0.02
0.02
0.02
0.02
0.02
0.01
0.01
0.01
0.01
0.01
0.01
0.01
0.01
0.01
0.01
0.01
0.01
0.01
0.01
0.01
0.01
0.01
0.01
0.01
0.01
0.01
0.01
0.00
0.01
0.01
0.01
0.02
0.03
0.05
0.06
0.08
0.11
0.14
0.17
0.20
0.24
0.29
0.33
0.37
0.42
0.46
0.51
0.56
0.61
0.66
0.72
0.78
0.84
0.92
1.02
1.12
1.25
1.36
1.47
1.56
1.63
1.71
1.84
2.01
2.24
2.52
2.84
3.14
3.44
3.73
4.04
4.42
4.88
5.42
6.03
6.65
7.25
7.78
8.27
8.77
9.37
10.13
11.05
12.10
13.14
14.05
14.76
15.28
15.74
16.29
17.01
17.84
18.52
18.64
17.82
15.85
12.74
8.79
4.44
0.07
-4.13
-8.22
-12.49
-17.20
-22.39
-27.80
-32.84
-36.84
-39.38
-40.41
-40.31
-39.72
-39.28
-39.47
-40.62
-42.84
-45.94
-49.16
-51.09
-49.92
-44.16
-33.55
-19.40
-4.42
8.44
17.13
21.35
22.35
22.00
21.67
21.65
21.38
20.13
17.76
14.83
12.18
10.44
9.66
9.43
9.20
8.60
7.67
6.64
5.76
5.13
4.68
4.25
3.70
2.95
1.98
0.82
-0.33
-1.16
-1.39
-0.89
0.14
1.29
2.16
2.52
2.43
2.14
1.89
1.79
1.72
1.34
0.30
-1.49
-3.83
-6.37
-8.79
-10.98
-13.01
-15.07
-17.25
-19.47
-21.56
-23.39
-25.01
-26.65
-28.63
-31.14
-34.03
-36.71
-38.31
-37.83
-34.43
-27.65
-17.66
-5.23
8.27
21.13
31.76
39.15
43.05
44.04
43.10
41.24
39.17
37.22
35.46
33.86
32.40
31.08
29.84
28.58
27.19
25.63
23.92
22.01
19.73
16.86
13.20
8.82
4.04
-0.54
-4.20
-6.23
-5.91
-2.65
3.94
13.73
25.91
39.01
51.19
60.66
66.28
67.73
65.50
60.52
53.86
46.45
38.97
31.80
25.08
18.69
12.35
5.85
-0.90
-7.72
-14.14
-19.51
-23.11
-24.38
-23.20
-20.09
-16.15
-12.55
-9.98
-8.26
-6.65
-4.41
-1.11
3.44
9.73
18.83
31.86
48.87
68.02
85.54
97.00
99.34
92.43
79.10
63.68
49.99
40.00
33.84
30.51
28.86
27.71
25.66
20.96
12.01
-1.69
-18.91
-36.41
-49.63
-54.07
-47.04
-29.20
-5.06
18.12
32.71
33.61
20.32
-2.99
-29.56
-52.94
-69.38
-78.21
-80.60
-77.80
-70.24
-58.00
-42.09
-25.19
-11.06
-2.80
-1.27
-4.60
-9.21
-11.74
-10.58
-6.48
-1.90
0.37
-1.53
-7.99
-18.02
-29.89
-41.78
-52.35
-60.85
-67.08
-71.34
-74.52
-78.11
-83.84
-93.02
-105.49
-119.25
-130.71
-135.99
-132.52
-119.97
-100.21
-76.18
-50.57
-25.03
-0.35
22.87
43.70
60.98
73.89
82.66
88.75
94.06
100.00
106.77
113.35
118.07
119.55
117.37
112.18
105.34
98.37
92.29
87.26
82.31
75.63
65.30
50.31
31.27
10.51
-8.44
-22.03
-27.92
-25.84
-17.79
-7.43
0.84
3.26
-2.11
-14.96
-33.12
-53.62
-73.67
-91.17
-104.50
-112.30
-113.19
-106.15
-91.24
-70.11
-45.75
-21.68
-1.03
13.96
21.85
21.93
14.23
-0.12
-18.79
-38.96
-58.56
-77.38
-97.04
-119.61
-145.67
-173.25
-198.30
-216.60
-225.94
-227.29
-224.23
-221.37
-222.50
-229.60
-242.53
-259.43
-277.20
-292.39
-302.18
-305.40
-303.20
-298.66
-295.62
-296.97
-303.40
-313.17
-323.01
-329.67
-331.01
-326.45
-316.43
-301.86
-283.70
-262.91
-240.71
-218.59
-198.07
-180.20
-165.25
-152.52
-140.50
-127.52
-112.28
-94.28
-73.81
-51.56
-28.07
-3.26
23.77
54.67
91.37
135.41
186.97
244.12
302.68
357.00
401.59
432.92
450.58
457.05
456.40
452.40
447.21
441.23
433.86
424.62
413.79
402.19
390.49
378.67
366.01
351.66
335.30
317.36
298.83
280.68
263.33
246.60
229.92
212.78
194.91
176.44
157.72
139.22
121.50
105.12
90.66
78.50
68.76
61.23
55.52
51.24
48.14
46.05
44.78
44.03
43.36
42.41
41.03
39.36
37.70
36.27
35.18
34.37
33.75
33.30
33.09
33.15
33.30
33.24
32.63
31.37
29.67
27.91
26.41
25.19
23.94
22.22
19.76
16.66
13.34
10.25
7.66
5.47
3.35
0.94
-1.84
-4.76
-7.46
-9.58
-10.99
-11.79
-12.11
-11.96
-11.15
-9.42
-6.57
-2.72
1.59
5.71
9.02
11.29
12.60
13.26
13.49
13.32
12.57
11.15
9.16
7.02
5.20
4.00
3.36
2.90
2.21
1.09
-0.36
-1.81
-2.87
-3.34
-3.35
-3.37
-3.97
-5.63
-8.44
-12.00
-15.52
-18.07
-18.90
-17.79
-15.12
-11.77
-8.74
-6.74
-5.84
-5.52
-4.85
-2.97
0.48
5.15
10.14
14.38
17.23
18.89
20.32
22.83
27.50
34.62
43.66
53.60
63.25
71.45
76.74
77.42
72.02
60.37
44.40
27.97
15.23
8.40
6.28
4.59
-2.01
-17.09
-40.77
-69.85
-99.74
-126.64
-148.92
-166.82
-181.24
-192.57
-200.34
-203.82
-202.88
-198.45
-192.24
-186.14
-181.42
-178.24
-175.78
-172.58
-167.30
-159.30
-148.79
-136.68
-124.03
-111.60
-99.61
-87.84
-75.97
-63.79
-51.36
-38.93
-26.80
-15.27
-4.55
5.22
13.95
21.62
28.32
34.19
39.38
44.00
48.04
51.39
53.89
55.47
56.28
56.66
57.04
57.65
58.46
59.08
59.05
58.06
56.25
54.06
52.07
50.63
49.63
48.62
47.01
44.41
40.80
36.50
31.96
27.62
23.73
20.42
17.76
15.87
14.89
15.00
16.17
18.18
20.50
22.53
23.75
23.99
23.35
22.20
20.99
20.02
19.39
19.04
18.80
18.48
17.94
17.07
15.89
14.47
12.93
11.44
10.13
9.01
7.98
6.84
5.36
3.34
0.68
-2.56
-6.21
-9.96
-13.47
-16.52
-19.04
-21.10
-22.81
-24.18
-25.09
-25.29
-24.59
-23.02
-20.83
-18.42
-16.15
-14.17
-12.41
-10.65
-8.66
-6.37
-3.88
-1.38
0.88
2.74
4.12
5.02
5.57
5.95
6.33
6.78
7.30
7.81
8.20
8.46
8.71
9.12
9.83
10.89
12.18
13.53
14.67
15.43
15.75
15.68
15.31
14.80
14.19
13.43
12.41
11.00
9.14
6.86
4.33
1.79
-0.53
-2.46
-3.97
-5.23
-6.52
-8.10
-10.12
-12.53
-15.06
-17.41
-19.37
-20.99
-22.46
-24.09
-26.06
-28.39
-30.91
-33.34
-35.34
-36.60
-36.88
-36.08
-34.31
-31.85
-29.07
-26.28
-23.60
-20.89
-17.91
-14.50
-10.73
-6.90
-3.35
-0.32
2.14
4.16
5.91
7.47
8.82
9.86
10.49
10.76
10.76
10.62
10.41
10.18
9.98
9.82
9.75
9.75
9.74
9.67
9.52
9.35
9.23
9.15
8.94
8.32
7.12
5.36
3.31
1.41
-0.05
-1.07
-1.92
-2.98
-4.51
-6.55
-8.99
-11.69
-14.44
-16.75
-17.67
-15.94
-10.47
-1.05
11.20
23.96
34.51
40.71
41.67
38.01
31.23
23.18
15.38
8.84
4.12
1.39
0.57
1.28
2.90
4.77
6.36
7.45
8.13
8.67
9.28
10.01
10.72
11.15
11.05
10.23
8.62
6.32
3.58
0.78
-1.64
-3.24
-3.81
-3.37
-2.21
-0.80
0.42
1.22
1.57
1.60
1.51
1.45
1.54
1.83
2.34
3.00
3.71
4.33
4.77
5.03
5.19
5.35
5.50
5.46
4.98
3.85
2.12
0.13
-1.62
-2.74
-3.09
-2.94
-2.85
-3.37
-4.88
-7.39
-10.61
-13.99
-16.97
-19.03
-19.81
-19.14
-17.00
-13.69
-9.69
-5.75
-2.66
-1.17
-1.77
-4.53
-9.08
-14.67
-20.41
-25.48
-29.43
-32.20
-34.09
-35.56
-36.93
-38.27
-39.39
-39.99
-39.82
-38.89
-37.44
-35.94
-34.93
-34.83
-35.83
-37.84
-40.51
-43.31
-45.72
-47.29
-47.72
-46.78
-44.48
-41.02
-36.89
-32.69
-28.82
-25.15
-20.91
-15.12
-7.28
2.17
11.74
19.59
24.29
25.56
24.27
21.95
19.85
18.48
17.47
15.99
13.30
9.15
3.80
-2.01
-7.25
-10.84
-11.84
-9.76
-4.74
2.49
10.71
18.68
25.47
30.59
33.97
35.84
36.47
36.17
35.27
34.18
33.27
32.76
32.59
32.46
31.97
30.94
29.50
28.13
27.38
27.68
29.06
31.19
33.60
35.83
37.64
38.90
39.42
38.90
36.85
32.91
27.02
19.66
11.69
4.10
-2.41
-7.59
-11.66
-15.14
-18.57
-22.39
-26.85
-32.01
-37.75
-43.73
-49.44
-54.20
-57.48
-59.15
-59.68
-60.10
-61.62
-65.10
-70.35
-75.95
-79.39
-77.99
-69.84
-54.60
-33.69
-9.74
14.32
36.18
54.58
69.36
81.04
90.41
98.22
104.89
110.53
114.85
117.32
117.29
114.34
108.46
100.30
91.02
82.05
74.67
69.65
67.03
66.18
66.11
65.90
65.00
63.35
61.30
59.33
57.85
57.09
57.19
58.20
60.10
62.63
65.33
67.53
68.53
67.92
65.69
62.21
58.01
53.50
48.81
43.80
38.27
32.19
25.69
19.03
12.38
5.69
-1.25
-8.68
-16.64
-24.91
-33.04
-40.56
-47.16
-52.78
-57.62
-61.95
-65.98
-69.73
-72.99
-75.41
-76.65
-76.51
-74.97
-72.16
-68.21
-63.23
-57.23
-50.29
-42.60
-34.52
-26.43
-18.60
-11.06
-3.64
3.88
11.59
19.42
27.17
34.63
41.74
48.62
55.52
62.88
71.10
80.46
90.88
101.77
112.10
120.65
126.36
128.46
126.39
119.75
108.36
92.75
74.31
55.11
37.08
21.04
6.39
-8.27
-23.71
-38.74
-50.12
-53.90
-47.93
-33.63
-16.07
-1.92
3.56
-1.33
-14.57
-32.15
-50.23
-66.47
-79.93
-90.25
-97.24
-101.54
-105.50
-113.27
-129.04
-154.34
-186.14
-217.23
-239.26
-246.46
-237.95
-217.53
-191.19
-164.33
-140.18
-119.90
-103.74
-91.87
-84.41
-80.85
-79.78
-79.20
-77.20
-72.69
-65.43
-55.85
-44.76
-33.27
-22.73
-14.54
-9.70
-8.37
-9.79
-12.60
-15.37
-17.11
-17.48
-16.61
-14.74
-12.03
-8.48
-4.06
1.10
6.65
11.98
16.36
19.10
19.74
18.22
15.00
10.95
7.19
4.75
4.22
5.46
7.69
9.76
10.63
9.78
7.39
4.09
0.55
-2.92
-6.45
-10.35
-14.61
-18.73
-21.78
-22.97
-22.18
-20.09
-17.88
-16.54
-16.23
-16.24
-15.40
-12.78
-8.29
-2.72
2.63
6.51
8.17
7.52
4.92
0.93
-3.93
-9.25
-14.66
-19.61
-23.41
-25.23
-24.41
-20.77
-14.78
-7.51
-0.17
6.25
11.42
15.59
19.27
22.78
26.06
28.78
30.71
31.96
33.02
34.45
36.47
38.85
40.96
42.07
41.67
39.68
36.30
31.87
26.74
21.21
15.52
9.92
4.60
-0.41
-5.24
-10.15
-15.41
-21.15
-27.21
-33.17
-38.48
-42.67
-45.47
-46.94
-47.33
-46.93
-45.92
-44.30
-42.04
-39.22
-36.21
-33.71
-32.56
-33.37
-36.23
-40.45
-44.77
-47.75
-48.35
-46.42
-42.74
-38.85
-36.41
-36.79
-40.65
-47.66
-56.24
-63.51
-65.68
-59.03
-41.27
-12.86
22.60
59.22
90.66
112.28
122.49
122.72
116.35
106.97
97.14
87.93
79.27
70.69
61.94
53.14
44.77
37.35
31.29
26.77
23.84
22.50
22.83
24.90
28.58
33.35
38.20
41.80
42.89
40.76
35.52
28.11
19.95
12.36
6.22
1.75
-1.41
-3.86
-6.23
-8.94
-12.16
-15.88
-19.84
-23.65
-26.87
-29.04
-29.82
-29.02
-26.62
-22.78
-17.71
-11.70
-4.96
2.31
9.94
17.77
25.48
32.69
38.96
43.90
47.23
48.85
48.72
46.89
43.53
38.94
33.67
28.41
23.79
20.23
17.76
16.12
14.95
13.98
13.09
12.30
11.58
10.84
9.95
8.87
7.66
6.42
5.08
3.41
1.19
-1.42
-3.70
-4.48
-2.66
2.19
9.40
17.47
24.67
29.80
32.64
33.82
34.34
34.84
35.45
35.78
35.40
34.10
32.01
29.38
26.42
23.19
19.67
15.96
12.30
9.11
6.79
5.63
5.56
6.20
6.88
6.83
5.41
2.34
-2.19
-7.53
-12.81
-17.12
-19.83
-20.61
-19.47
-16.73
-12.86
-8.46
-4.17
-0.60
1.77
2.69
2.17
0.51
-1.84
-4.40
-6.77
-8.73
-10.21
-11.28
-12.03
-12.53
-12.79
-12.83
-12.74
-12.69
-12.93
-13.73
-15.15
-17.00
-18.80
-19.93
-19.82
-18.10
-14.83
-10.33
-5.13
0.21
5.28
9.85
13.85
17.27
20.16
22.49
24.27
25.41
25.91
25.76
25.02
23.79
22.13
20.06
17.56
14.66
11.55
8.57
6.13
4.55
3.88
3.86
4.01
3.83
3.03
1.62
-0.19
-2.07
-3.81
-5.33
-6.63
-7.75
-8.73
-9.63
-10.54
-11.61
-12.98
-14.81
-17.17
-20.17
-23.92
-28.50
-33.86
-39.71
-45.49
-50.43
-53.84
-55.22
-54.50
-51.94
-48.00
-43.19
-37.93
-32.43
-26.79
-21.11
-15.42
-9.85
-4.42
0.89
6.26
11.88
17.82
23.91
29.73
34.68
38.28
40.23
40.58
39.66
37.96
35.93
33.91
32.08
30.51
29.17
27.95
26.79
25.60
24.39
23.09
21.65
19.98
17.96
15.60
13.00
10.44
8.16
6.30
4.85
3.61
2.35
0.84
-1.01
-3.22
-5.73
-8.47
-11.42
-14.61
-18.08
-21.88
-25.84
-29.60
-32.64
-34.47
-34.81
-33.71
-31.53
-28.70
-25.52
-22.03
-18.12
-13.71
-8.94
-4.14
0.32
4.26
7.69
10.80
13.71
16.38
18.57
20.09
20.85
20.98
20.69
20.22
19.69
19.12
18.57
18.11
17.85
17.90
18.22
18.65
18.93
18.76
17.92
16.29
13.91
10.94
7.62
4.17
0.78
-2.49
-5.61
-8.57
-11.29
-13.69
-15.71
-17.42
-19.02
-20.74
-22.75
-25.08
-27.68
-30.41
-33.14
-35.66
-37.73
-39.05
-39.29
-38.20
-35.75
-32.14
-27.72
-22.89
-17.94
-12.99
-7.96
-2.66
3.15
9.62
16.69
24.00
30.91
36.73
40.89
43.11
43.43
42.10
39.51
36.04
32.10
28.10
24.52
21.75
19.99
19.13
18.82
18.59
17.99
16.86
15.20
13.28
11.43
9.94
8.97
8.46
8.16
7.77
7.06
6.00
4.68
3.31
2.00
0.75
-0.48
-1.75
-3.04
-4.31
-5.58
-6.98
-8.69
-10.81
-13.31
-16.01
-18.70
-21.31
-23.94
-26.67
-29.47
-32.00
-33.74
-34.16
-33.04
-30.46
-26.80
-22.54
-18.01
-13.43
-8.89
-4.45
-0.21
3.71
7.18
10.10
12.40
14.03
14.97
15.25
15.06
14.68
14.48
14.78
15.75
17.33
19.19
20.93
22.15
22.65
22.49
21.94
21.25
20.50
19.56
18.16
16.09
13.39
10.35
7.36
4.73
2.54
0.62
-1.21
-3.09
-4.95
-6.66
-8.13
-9.47
-10.94
-12.87
-15.42
-18.58
-22.08
-25.65
-29.07
-32.25
-35.19
-37.84
-40.01
-41.36
-41.59
-40.56
-38.36
-35.28
-31.71
-27.98
-24.25
-20.60
-17.01
-13.46
-10.00
-6.72
-3.75
-1.24
0.72
2.13
3.06
3.70
4.18
4.61
4.97
5.09
4.74
3.73
2.00
-0.27
-2.70
-4.81
-6.19
-6.76
-6.78
-6.82
-7.50
-9.27
-12.22
-15.99
-19.86
-22.77
-23.53
-21.09
-14.86
-5.10
7.00
19.57
30.69
39.02
44.15
46.54
47.01
46.23
44.45
41.69
37.99
33.78
29.72
26.47
24.28
22.80
21.25
18.77
14.78
9.28
2.84
-3.65
-9.18
-13.02
-14.85
-14.84
-13.51
-11.50
-9.32
-7.20
-5.09
-2.81
-0.23
2.60
5.52
8.28
10.77
12.96
14.99
17.00
19.03
20.97
22.58
23.65
24.07
23.92
23.40
22.75
22.13
21.53
20.82
19.85
18.54
16.93
15.19
13.46
11.84
10.30
8.76
7.12
5.34
3.49
1.63
-0.19
-1.97
-3.82
-5.85
-8.09
-10.49
-12.90
-15.18
-17.22
-19.05
-20.80
-22.67
-24.81
-27.30
-30.10
-33.11
-36.19
-39.24
-42.11
-44.60
-46.45
-47.29
-46.79
-44.69
-40.98
-35.86
-29.80
-23.34
-16.96
-11.01
-5.57
-0.58
4.10
8.55
12.77
16.66
20.07
22.85
24.89
26.20
26.82
26.89
26.59
26.11
25.62
25.21
24.90
24.64
24.36
23.97
23.41
22.65
21.64
20.37
18.82
17.00
14.90
12.59
10.12
7.55
4.96
2.38
-0.10
-2.44
-4.58
-6.52
-8.31
-9.98
-11.62
-13.21
-14.72
-16.12
-17.41
-18.70
-20.17
-21.94
-24.02
-26.26
-28.44
-30.35
-31.96
-33.37
-34.75
-36.16
-37.42
-38.16
-37.89
-36.25
-33.13
-28.75
-23.51
-17.87
-12.17
-6.60
-1.24
3.88
8.71
13.18
17.20
20.69
23.61
25.96
27.73
28.98
29.78
30.24
30.47
30.54
30.49
30.33
30.07
29.67
29.13
28.40
27.44
26.23
24.76
23.05
21.14
19.01
16.69
14.21
11.71
9.38
7.38
5.76
4.41
3.09
1.56
-0.28
-2.40
-4.60
-6.68
-8.49
-10.06
-11.50
-12.97
-14.60
-16.41
-18.33
-20.21
-21.95
-23.49
-24.92
-26.40
-28.13
-30.25
-32.76
-35.49
-38.18
-40.49
-42.12
-42.77
-42.15
-40.02
-36.26
-30.99
-24.64
-17.88
-11.40
-5.75
-1.10
2.66
5.81
8.61
11.20
13.54
15.63
17.46
19.08
20.57
21.96
23.25
24.41
25.44
26.31
26.98
27.37
27.39
26.98
26.18
25.12
23.97
22.90
21.99
21.26
20.67
20.15
19.66
19.09
18.35
17.35
16.02
14.38
12.48
10.43
8.33
6.29
4.38
2.62
1.04
-0.44
-1.90
-3.47
-5.27
-7.36
-9.67
-12.04
-14.31
-16.40
-18.36
-20.35
-22.51
-24.81
-26.97
-28.54
-29.02
-28.13
-25.85
-22.52
-18.56
-14.42
-10.41
-6.71
-3.43
-0.63
1.67
3.61
5.41
7.33
9.53
11.94
14.24
16.01
16.85
16.59
15.30
13.27
10.83
8.26
5.67
3.00
0.08
-3.17
-6.70
-10.29
-13.68
-16.69
-19.42
-22.23
-25.65
-30.14
-35.84
-42.51
-49.62
-56.51
-62.68
-67.99
-72.69
-77.32
-82.51
-88.57
-95.45
-102.73
-109.74
-115.59
-119.18
-119.07
-113.79
-102.33
-84.81
-62.74
-38.67
-15.26
5.71
23.89
39.94
54.72
68.26
79.62
87.35
90.46
89.29
85.46
81.32
78.92
79.24
82.13
86.57
91.34
95.53
98.74
100.95
102.16
102.14
100.39
96.35
89.72
80.77
70.34
59.57
49.55
40.93
33.86
28.18
23.64
20.25
18.19
17.63
18.40
19.93
21.35
21.80
20.84
18.51
15.26
11.68
8.16
4.83
1.56
-1.87
-5.63
-9.79
-14.33
-19.05
-23.60
-27.36
-29.63
-29.80
-27.59
-23.13
-16.89
-9.45
-1.30
7.23
15.90
24.41
32.35
39.38
45.40
50.64
55.62
60.81
66.37
71.96
76.91
80.43
82.01
81.50
79.11
75.25
70.35
64.77
58.71
52.36
45.79
39.07
32.22
25.13
17.72
9.97
2.04
-5.64
-12.50
-17.92
-21.57
-23.50
-24.20
-24.49
-25.26
-27.28
-31.02
-36.65
-43.98
-52.51
-61.44
-69.83
-76.80
-81.77
-84.62
-85.63
-85.39
-84.51
-83.43
-82.40
-81.43
-80.40
-79.04
-76.94
-73.58
-68.47
-61.42
-52.72
-43.17
-33.85
-25.86
-19.95
-16.31
-14.71
-14.62
-15.50
-17.02
-18.95
-21.22
-23.66
-26.02
-27.98
-29.27
-29.78
-29.66
-29.26
-28.93
-28.95
-29.35
-29.94
-30.44
-30.62
-30.43
-30.03
-29.67
-29.56
-29.72
-29.95
-29.93
-29.33
-28.00
-25.98
-23.49
-20.81
-18.14
-15.55
-12.99
-10.36
-7.64
-4.87
-2.14
0.51
3.20
6.09
9.34
12.91
16.59
19.97
22.65
24.34
24.93
24.50
23.32
21.73
20.09
18.69
17.72
17.23
17.19
17.45
17.81
18.01
17.75
16.80
15.07
12.63
9.80
6.98
4.52
2.58
1.09
-0.11
-1.25
-2.43
-3.64
-4.93
-6.42
-8.39
-11.12
-14.74
-18.99
-23.19
-26.46
-27.93
-27.14
-24.09
-19.21
-13.15
-6.57
-0.02
6.07
11.34
15.55
18.66
20.89
22.71
24.60
26.90
29.58
32.34
34.74
36.48
37.50
37.91
37.89
37.51
36.74
35.53
34.00
32.36
30.92
29.89
29.19
28.54
27.58
26.14
24.30
22.37
20.69
19.34
18.17
16.75
14.67
11.71
7.96
3.78
-0.38
-4.17
-7.44
-10.25
-12.82
-15.43
-18.30
-21.54
-25.10
-28.75
-32.10
-34.68
-36.06
-35.98
-34.36
-31.31
-27.05
-21.88
-16.15
-10.23
-4.52
0.61
4.97
8.57
11.65
14.55
17.50
20.54
23.54
26.24
28.45
30.04
30.99
31.28
30.96
30.11
28.92
27.60
26.33
25.18
24.05
22.76
21.16
19.28
17.32
15.59
14.40
13.87
13.86
13.96
13.67
12.48
10.09
6.53
2.16
-2.44
-6.66
-10.01
-12.37
-13.95
-15.18
-16.60
-18.60
-21.30
-24.51
-27.72
-30.33
-31.80
-31.85
-30.57
-28.33
-25.62
-22.88
-20.38
-18.13
-16.05
-13.96
-11.76
-9.42
-7.00
-4.55
-2.16
0.12
2.15
3.76
4.79
5.13
4.83
4.16
3.53
3.35
3.88
5.06
6.59
8.04
9.03
9.40
9.15
8.38
7.15
5.48
3.39
1.04
-1.29
-3.31
-4.89
-6.16
-7.44
-9.11
-11.37
-14.15
-17.11
-19.75
-21.69
-22.68
-22.77
-22.21
-21.34
-20.47
-19.82
-19.52
-19.65
-20.32
-21.57
-23.37
-25.49
-27.38
-28.34
-27.70
-25.13
-20.78
-15.19
-9.12
-3.19
2.18
6.84
10.82
14.13
16.78
18.70
19.80
20.02
19.45
18.30
16.91
15.67
14.96
15.16
16.69
20.00
25.43
32.99
42.09
51.59
59.95
65.72
68.06
66.93
62.97
57.21
50.63
43.98
37.74
32.14
27.29
23.19
19.78
16.99
14.70
12.71
10.73
8.38
5.32
1.41
-3.13
-7.86
-12.30
-16.11
-19.23
-21.78
-23.83
-25.33
-26.15
-26.25
-25.85
-25.40
-25.45
-26.33
-28.00
-29.88
-31.17
-31.23
-29.92
-27.74
-25.53
-24.00
-23.26
-22.86
-22.16
-20.92
-19.48
-18.55
-18.71
-20.00
-21.92
-23.91
-25.87
-28.24
-31.67
-36.43
-41.98
-47.16
-50.70
-51.85
-50.66
-47.81
-44.15
-40.37
-36.83
-33.68
-30.96
-28.62
-26.56
-24.59
-22.47
-19.82
-16.29
-11.45
-5.06
2.82
11.60
20.17
27.22
31.83
33.98
34.56
35.04
36.68
39.81
43.61
46.56
47.16
44.66
39.33
32.14
24.30
16.70
9.79
3.77
-1.11
-4.38
-5.46
-3.94
0.12
6.08
12.85
19.35
24.85
29.26
32.97
36.60
40.57
44.83
48.94
52.23
54.14
54.45
53.38
51.38
48.99
46.57
44.24
41.87
39.22
36.09
32.38
28.11
23.44
18.53
13.56
8.65
3.95
-0.34
-3.98
-6.71
-8.39
-8.98
-8.65
-7.67
-6.35
-4.96
-3.71
-2.75
-2.18
-2.05
-2.30
-2.81
-3.39
-3.87
-4.17
-4.39
-4.75
-5.54
-7.00
-9.26
-12.35
-16.19
-20.73
-25.85
-31.42
-37.22
-43.03
-48.56
-53.58
-57.86
-61.22
-63.48
-64.52
-64.21
-62.58
-59.73
-55.83
-51.06
-45.58
-39.55
-33.16
-26.68
-20.35
-14.36
-8.71
-3.28
2.12
7.52
12.69
17.13
20.16
21.16
19.71
15.72
9.54
2.07
-5.19
-10.35
-11.57
-7.71
1.19
13.70
27.50
40.11
49.86
56.40
60.66
64.20
68.39
73.79
80.01
86.02
90.73
93.50
94.26
93.36
91.16
87.70
82.58
75.21
65.17
52.52
37.85
22.15
6.40
-8.60
-22.43
-34.95
-46.12
-55.87
-64.03
-70.49
-75.29
-78.61
-80.79
-82.14
-82.76
-82.59
-81.44
-79.16
-75.75
-71.38
-66.31
-60.81
-55.05
-49.12
-43.05
-36.88
-30.71
-24.71
-19.20
-14.62
-11.51
-10.22
-10.63
-11.75
-11.87
-8.92
-1.33
11.18
27.33
44.54
59.84
70.78
76.20
76.23
71.92
64.61
55.48
45.41
35.03
24.94
15.73
7.96
1.96
-2.25
-4.97
-6.71
-7.98
-9.08
-10.07
-10.75
-10.87
-10.28
-9.08
-7.61
-6.43
-6.07
-6.98
-9.30
-12.85
-17.12
-21.49
-25.35
-28.44
-30.85
-33.03
-35.52
-38.61
-42.15
-45.55
-48.03
-48.99
-48.31
-46.43
-44.10
-41.97
-40.30
-38.82
-36.96
-34.24
-30.52
-26.12
-21.67
-17.91
-15.46
-14.88
-16.56
-20.53
-26.06
-31.42
-34.00
-31.06
-20.76
-2.95
20.62
46.99
72.96
96.04
114.78
128.50
136.95
140.04
137.97
131.56
122.32
112.12
102.59
94.52
87.70
81.22
74.08
65.74
56.30
46.40
36.74
27.75
19.46
11.60
3.87
-3.82
-11.31
-18.25
-24.36
-29.54
-33.88
-37.63
-41.00
-44.18
-47.26
-50.27
-53.18
-55.88
-58.15
-59.63
-59.95
-58.81
-56.12
-52.08
-47.14
-41.82
-36.57
-31.64
-27.08
-22.81
-18.73
-14.78
-10.97
-7.30
-3.82
-0.59
2.30
4.73
6.56
7.78
8.51
8.96
9.37
9.84
10.37
10.80
10.97
10.80
10.34
9.69
8.99
8.27
7.48
6.51
5.31
3.90
2.37
0.87
-0.49
-1.62
-2.50
-3.10
-3.44
-3.65
-3.99
-4.63
-5.44
-5.69
-4.09
0.89
10.44
24.92
43.76
65.64
88.93
111.90
132.79
149.79
161.05
165.18
161.76
151.87
137.98
123.33
110.96
102.86
99.57
100.38
104.01
109.15
114.83
120.52
125.91
130.61
134.13
135.92
135.56
133.01
128.38
121.35
110.72
94.70
72.11
43.88
13.47
-14.21
-35.29
-49.46
-60.57
-74.78
-97.18
-128.76
-165.83
-201.94
-231.17
-250.51
-260.16
-261.72
-256.18
-243.24
-222.47
-195.06
-164.86
-137.45
-117.80
-108.07
-106.75
-109.72
-112.73
-113.47
-112.26
-111.21
-112.49
-116.91
-123.63
-130.91
-137.33
-142.51
-147.05
-152.06
-158.48
-166.75
-176.60
-186.72
-194.55
-196.56
-189.19
-170.17
-139.81
-101.24
-59.45
-19.60
14.42
40.55
58.18
67.39
68.52
62.48
51.32
38.35
27.48
22.00
23.33
30.53
40.72
50.48
57.21
60.04
59.90
58.85
58.96
61.29
65.48
70.08
73.31
73.92
71.71
67.44
62.33
57.47
53.39
49.99
46.83
43.36
39.23
34.40
29.10
23.60
18.12
12.70
7.26
1.78
-3.61
-8.56
-12.68
-15.76
-17.95
-19.85
-22.33
-26.23
-32.15
-40.16
-49.84
-60.31
-70.45
-79.14
-85.65
-89.90
-92.52
-94.68
-97.58
-102.04
-108.14
-115.38
-123.01
-130.49
-137.75
-145.24
-153.66
-163.70
-175.97
-190.95
-208.84
-229.13
-250.17
-268.90
-281.37
-283.78
-273.79
-251.41
-218.73
-178.97
-134.88
-87.94
-38.52
12.91
64.55
112.77
153.00
181.47
196.82
200.82
197.54
191.61
186.54
183.85
183.37
184.31
186.36
189.88
195.54
203.45
212.67
221.39
227.63
230.05
228.36
223.31
216.09
207.74
198.87
189.65
180.08
170.24
160.30
150.54
141.27
132.64
124.69
117.26
110.09
102.84
95.21
87.00
78.22
69.03
59.74
50.77
42.58
35.60
30.16
26.39
24.26
23.49
23.70
24.46
25.40
26.26
26.88
27.13
26.99
26.51
25.81
25.18
24.89
25.22
26.26
27.86
29.67
31.19
32.04
32.08
31.44
30.49
29.61
29.06
28.94
29.12
29.39
29.50
29.22
28.36
26.80
24.45
21.23
17.20
12.51
7.48
2.58
-1.64
-4.73
-6.53
-7.23
-7.27
-7.18
-7.25
-7.51
-7.78
-7.85
-7.70
-7.45
-7.32
-7.41
-7.68
-7.92
-7.86
-7.31
-6.18
-4.56
-2.62
-0.66
1.04
2.28
2.92
3.09
3.02
3.07
3.53
4.59
6.16
8.02
9.75
10.84
10.90
9.69
7.34
4.31
1.28
-1.10
-2.49
-2.93
-2.83
-2.72
-3.05
-3.91
-5.24
-6.87
-8.75
-11.03
-13.87
-17.30
-21.03
-24.61
-27.47
-29.28
-30.05
-30.04
-29.72
-29.40
-29.22
-28.97
-28.38
-27.14
-25.11
-22.33
-18.95
-15.15
-11.14
-7.13
-3.39
-0.21
2.18
3.71
4.51
4.85
5.03
5.25
5.60
6.08
6.65
7.28
7.93
8.59
9.22
9.82
10.46
11.27
12.41
13.99
15.91
17.90
19.56
20.61
21.00
21.09
21.46
22.68
25.04
28.39
32.25
36.10
39.69
43.11
46.78
51.12
56.37
62.49
69.24
76.28
83.20
89.52
94.62
97.77
98.27
95.64
89.83
81.20
70.45
58.36
45.60
32.54
19.34
6.08
-7.04
-19.54
-30.80
-40.25
-47.61
-53.02
-56.93
-59.85
-62.16
-64.17
-66.19
-68.70
-72.23
-77.20
-83.62
-90.99
-98.49
-105.32
-111.06
-115.77
-119.92
-124.02
-128.34
-132.69
-136.46
-138.82
-138.94
-136.33
-130.90
-123.05
-113.39
-102.58
-91.22
-79.71
-68.34
-57.38
-47.08
-37.55
-28.76
-20.48
-12.38
-4.21
4.00
11.94
19.07
24.84
28.93
31.31
32.20
31.91
30.58
28.13
24.23
18.44
10.44
0.20
-11.94
-25.37
-39.23
-52.70
-65.10
-75.97
-85.10
-92.42
-97.90
-101.52
-103.31
-103.36
-101.94
-99.44
-96.24
-92.63
-88.71
-84.47
-79.89
-75.02
-70.00
-65.03
-60.22
-55.50
-50.73
-45.67
-40.07
-33.72
-26.30
-17.48
-6.89
5.70
20.27
36.42
53.46
70.62
87.15
102.59
116.72
129.49
140.83
150.56
158.34
163.84
166.93
167.86
167.17
165.62
163.91
162.44
161.14
159.58
157.13
153.26
147.77
140.77
132.47
122.92
111.90
99.08
84.34
68.11
51.38
35.43
21.36
9.76
0.61
-6.43
-11.76
-15.65
-18.21
-19.61
-20.18
-20.44
-20.85
-21.67
-22.91
-24.35
-25.74
-26.86
-27.70
-28.35
-29.01
-29.90
-31.27
-33.25
-35.84
-38.82
-41.79
-44.29
-45.96
-46.67
-46.54
-45.78
-44.57
-42.93
-40.73
-37.85
-34.34
-30.52
-26.86
-23.85
-21.80
-20.78
-20.59
-20.95
-21.58
-22.26
-22.89
-23.37
-23.65
-23.63
-23.28
-22.65
-21.88
-21.10
-20.34
-19.51
-18.42
-16.96
-15.19
-13.39
-11.89
-10.91
-10.38
-10.04
-9.56
-8.78
-7.75
-6.67
-5.84
-5.49
-5.85
-7.12
-9.48
-12.96
-17.41
-22.47
-27.62
-32.33
-36.14
-38.69
-39.80
-39.36
-37.46
-34.25
-30.02
-25.14
-19.99
-14.95
-10.30
-6.23
-2.69
0.58
4.01
7.99
12.66
17.62
22.07
25.03
25.88
24.72
22.40
20.19
19.12
19.43
20.49
21.12
20.32
17.88
14.51
11.54
10.12
10.79
13.21
16.48
19.67
22.24
24.13
25.58
26.78
27.66
27.91
27.18
25.34
22.56
19.31
16.12
13.32
10.91
8.53
5.64
1.80
-3.17
-8.98
-15.00
-20.46
-24.72
-27.46
-28.77
-29.01
-28.57
-27.71
-26.41
-24.44
-21.55
-17.66
-12.98
-7.95
-3.12
0.97
4.00
5.75
6.17
5.29
3.24
0.26
-3.31
-7.16
-11.06
-14.98
-19.01
-23.24
-27.65
-32.00
-35.94
-39.14
-41.38
-42.65
-43.03
-42.62
-41.46
-39.58
-37.02
-33.92
-30.46
-26.83
-23.13
-19.36
-15.51
-11.60
-7.81
-4.43
-1.81
-0.19
0.38
0.09
-0.73
-1.76
-2.80
-3.85
-5.07
-6.65
-8.65
-10.96
-13.40
-15.83
-18.35
-21.29
-25.20
-30.54
-37.57
-46.11
-55.56
-64.96
-73.28
-79.60
-83.39
-84.60
-83.70
-81.51
-78.92
-76.53
-74.49
-72.41
-69.58
-65.30
-59.16
-51.17
-41.80
-31.71
-21.53
-11.68
-2.31
6.67
15.38
23.88
32.06
39.72
46.68
52.88
58.40
63.28
67.48
70.78
72.88
73.65
73.23
72.00
70.35
68.51
66.38
63.66
60.12
55.78
50.99
46.27
42.06
38.60
35.92
33.94
32.60
31.80
31.34
30.81
29.69
27.47
23.88
19.02
13.25
7.14
1.11
-4.59
-10.00
-15.28
-20.63
-26.09
-31.49
-36.45
-40.40
-42.75
-43.07
-41.25
-37.56
-32.58
-26.97
-21.30
-15.83
-10.52
-5.12
0.69
7.20
14.46
22.40
30.76
39.24
47.47
55.14
61.95
67.70
72.30
75.83
78.49
80.55
82.22
83.54
84.42
84.57
83.61
81.19
77.12
71.50
64.81
57.77
51.19
45.67
41.26
37.51
33.59
28.75
22.58
15.18
7.02
-1.29
-9.25
-16.54
-22.99
-28.47
-32.98
-36.63
-39.71
-42.62
-45.68
-48.96
-52.18
-54.85
-56.54
-57.14
-56.92
-56.42
-56.21
-56.51
-57.17
-57.68
-57.48
-56.30
-54.31
-52.06
-50.20
-49.16
-48.93
-49.09
-49.07
-48.49
-47.28
-45.75
-44.27
-43.20
-42.60
-42.33
-42.11
-41.66
-40.69
-38.89
-36.04
-32.06
-27.21
-21.98
-17.10
-13.13
-10.21
-7.90
-5.32
-1.48
4.24
11.85
20.83
30.43
40.09
49.71
59.51
69.80
80.51
91.12
100.69
108.22
113.08
115.17
114.92
113.01
110.12
106.67
102.77
98.29
93.06
86.99
80.25
73.20
66.37
60.20
54.94
50.63
47.17
44.61
43.28
43.82
46.98
53.29
62.79
74.89
88.58
102.80
116.91
130.81
144.93
159.86
175.99
193.41
211.92
230.89
248.99
263.80
271.85
269.38
253.66
224.30
183.70
136.38
87.47
41.16
-0.14
-35.63
-65.29
-89.11
-106.88
-118.45
-124.40
-126.15
-125.75
-125.07
-125.21
-126.24
-127.47
-128.00
-127.18
-125.05
-122.23
-119.60
-117.92
-117.48
-118.10
-119.34
-120.77
-122.17
-123.53
-125.00
-126.73
-128.72
-130.76
-132.47
-133.42
-133.22
-131.75
-129.17
-125.78
-121.82
-117.33
-112.15
-106.11
-99.13
-91.37
-83.10
-74.61
-66.09
-57.69
-49.61
-42.08
-35.35
-29.47
-24.21
-19.18
-14.02
-8.67
-3.41
1.28
4.95
7.40
8.69
9.01
8.49
7.23
5.28
2.82
0.11
-2.52
-4.88
-6.94
-8.80
-10.59
-12.29
-13.72
-14.63
-14.85
-14.38
-13.50
-12.53
-11.83
-11.64
-12.06
-13.12
-14.69
-16.53
-18.32
-19.80
-20.94
-21.98
-23.39
-25.54
-28.51
-31.90
-34.98
-37.00
-37.42
-36.09
-33.22
-29.14
-24.24
-18.91
-13.50
-8.38
-3.89
-0.22
2.63
4.85
6.71
8.38
9.93
11.25
12.17
12.60
12.54
12.16
11.72
11.44
11.42
11.64
11.95
12.25
12.46
12.53
12.46
12.20
11.75
11.11
10.34
9.47
8.51
7.34
5.81
3.83
1.38
-1.43
-4.38
-7.25
-9.90
-12.23
-14.26
-16.01
-17.58
-19.05
-20.61
-22.46
-24.72
-27.41
-30.39
-33.38
-36.03
-37.94
-38.77
-38.21
-36.11
-32.53
-27.73
-22.15
-16.30
-10.61
-5.37
-0.59
3.79
7.86
11.61
14.95
17.80
20.17
22.19
23.97
25.57
26.88
27.79
28.26
28.46
28.69
29.21
30.12
31.27
32.33
33.05
33.34
33.31
33.20
33.20
33.36
33.59
33.65
33.33
32.44
30.94
28.93
26.64
24.36
22.31
20.50
18.78
16.88
14.57
11.75
8.46
4.79
0.82
-3.38
-7.73
-12.05
-16.12
-19.80
-23.02
-25.85
-28.36
-30.49
-32.00
-32.49
-31.59
-29.11
-25.13
-19.97
-14.12
-8.12
-2.40
2.67
6.87
10.15
12.58
14.35
15.69
16.78
17.72
18.46
18.89
18.82
18.13
16.75
14.76
12.25
9.32
6.04
2.48
-1.27
-5.08
-8.74
-12.06
-14.92
-17.33
-19.44
-21.51
-23.76
-26.30
-29.11
-32.06
-35.00
-37.66
-39.68
-40.61
-40.06
-37.83
-34.15
-29.64
-25.08
-21.23
-18.46
-16.82
-16.09
-16.11
-16.95
-18.97
-22.68
-28.48
-36.45
-46.30
-57.31
-68.63
-79.43
-89.07
-97.15
-103.41
-107.64
-109.64
-109.22
-106.38
-101.39
-94.73
-86.92
-78.38
-69.27
-59.56
-49.20
-38.32
-27.31
-16.68
-6.89
2.00
10.28
18.44
26.84
35.45
43.77
51.18
57.20
61.84
65.46
68.55
71.35
73.67
75.10
75.47
75.17
75.23
76.88
81.01
87.72
96.26
105.43
113.96
120.99
126.09
129.18
130.30
129.55
127.17
123.57
119.32
114.95
110.73
106.50
101.83
96.17
89.20
80.91
71.65
62.09
53.04
45.25
39.20
34.97
32.26
30.51
29.16
27.85
26.56
25.47
24.83
24.76
25.12
25.61
25.87
25.63
24.82
23.54
22.00
20.34
18.61
16.76
14.75
12.65
10.61
8.84
7.47
6.45
5.55
4.48
3.05
1.26
-0.75
-2.75
-4.59
-6.26
-7.94
-9.84
-12.14
-14.82
-17.70
-20.49
-22.98
-25.08
-26.90
-28.66
-30.53
-32.53
-34.47
-36.06
-37.09
-37.50
-37.46
-37.29
-37.33
-37.81
-38.79
-40.14
-41.57
-42.70
-43.15
-42.62
-40.91
-37.95
-33.91
-29.11
-24.04
-19.20
-15.00
-11.65
-9.14
-7.24
-5.65
-4.13
-2.52
-0.83
0.82
2.30
3.46
4.24
4.61
4.58
4.24
3.70
3.12
2.63
2.32
2.19
2.20
2.23
2.17
1.94
1.57
1.12
0.66
0.23
-0.19
-0.68
-1.26
-1.88
-2.42
-2.78
-2.95
-3.07
-3.38
-4.17
-5.59
-7.62
-10.01
-12.46
-14.69
-16.58
-18.18
-19.66
-21.15
-22.71
-24.27
-25.70
-26.91
-27.81
-28.33
-28.31
-27.50
-25.65
-22.67
-18.69
-14.08
-9.28
-4.67
-0.40
3.54
7.22
10.64
13.65
16.08
17.77
18.70
18.96
18.71
18.13
17.39
16.64
15.95
15.33
14.75
14.13
13.43
12.67
11.94
11.35
10.91
10.54
10.01
9.06
7.56
5.53
3.13
0.67
-1.61
-3.50
-4.99
-6.12
-7.01
-7.75
-8.35
-8.80
-9.11
-9.37
-9.76
-10.43
-11.48
-12.88
-14.59
-16.57
-18.88
-21.56
-24.51
-27.42
-29.77
-31.02
-30.86
-29.37
-26.93
-23.99
-20.91
-17.87
-14.92
-12.09
-9.53
-7.41
-5.78
-4.53
-3.41
-2.17
-0.78
0.60
1.71
2.39
2.75
3.13
3.93
5.38
7.39
9.64
11.77
13.57
15.02
16.26
17.42
18.55
19.59
20.47
21.13
21.57
21.76
21.66
21.20
20.34
19.10
17.70
16.37
15.35
14.76
14.59
14.68
14.78
14.61
13.95
12.62
10.55
7.75
4.33
0.49
-3.47
-7.15
-10.14
-12.06
-12.64
-11.82
-9.75
-6.78
-3.41
-0.14
2.59
4.52
5.64
6.07
6.09
5.94
5.84
5.85
5.99
6.29
6.71
7.24
7.74
8.06
8.02
7.61
7.03
6.60
6.63
7.23
8.26
9.39
10.31
10.87
11.11
11.21
11.27
11.28
11.20
10.97
10.64
10.30
10.05
9.86
9.62
9.23
8.65
7.94
7.22
6.58
6.01
5.42
4.66
3.58
2.10
0.19
-2.11
-4.72
-7.48
-10.30
-13.10
-15.87
-18.63
-21.27
-23.48
-24.79
-24.77
-23.16
-20.12
-16.18
-12.09
-8.49
-5.77
-3.94
-2.75
-1.89
-1.09
-0.22
0.76
1.80
2.80
3.64
4.18
4.33
4.07
3.48
2.69
1.86
1.19
0.84
0.96
1.66
2.96
4.71
6.61
8.28
9.43
9.96
10.02
9.93
10.04
10.58
11.52
12.66
13.67
14.30
14.48
14.33
14.10
14.05
14.30
14.79
15.26
15.41
15.03
14.16
13.07
12.19
11.90
12.36
13.50
15.06
16.60
17.64
17.63
16.12
12.83
7.96
2.36
-2.58
-5.28
-4.62
-0.40
6.48
14.30
21.13
25.45
26.56
24.58
20.14
14.01
6.92
-0.48
-7.49
-13.36
-17.44
-19.41
-19.56
-18.79
-18.26
-19.08
-21.81
-26.37
-32.21
-38.66
-45.37
-52.40
-60.10
-68.88
-78.90
-89.97
-101.64
-113.43
-124.92
-135.82
-145.93
-155.07
-163.08
-169.82
-175.10
-178.63
-179.95
-178.43
-173.52
-164.95
-152.97
-138.28
-121.77
-104.09
-85.29
-64.80
-41.58
-14.69
16.42
51.59
90.01
130.26
170.57
209.03
243.75
273.24
296.53
313.29
323.76
328.62
328.69
324.81
317.75
308.21
296.89
284.51
271.76
259.18
247.00
235.18
223.35
210.87
196.98
180.99
162.45
141.19
117.42
91.61
64.44
36.66
8.99
-17.96
-43.71
-67.90
-90.10
-109.74
-126.17
-138.88
-147.73
-153.16
-156.07
-157.61
-158.73
-160.00
-161.52
-163.13
-164.65
-165.97
-167.11
-168.05
-168.77
-169.18
-169.23
-168.83
-167.76
-165.60
-161.73
-155.52
-146.59
-135.15
-121.89
-107.85
-94.06
-81.15
-69.26
-58.13
-47.42
-36.96
-26.82
-17.25
-8.45
-0.49
6.66
12.98
18.37
22.61
25.56
27.31
28.13
28.41
28.47
28.47
28.41
28.27
28.04
27.74
27.33
26.62
25.36
23.38
20.78
17.92
15.22
13.00
11.31
10.04
9.02
8.25
7.83
7.87
8.29
8.78
8.87
8.18
6.56
4.20
1.50
-1.09
-3.25
-4.82
-5.82
-6.32
-6.50
-6.47
-6.36
-6.29
-6.25
-6.18
-5.87
-5.03
-3.37
-0.87
2.13
4.98
6.98
7.75
7.36
6.23
4.79
3.21
1.29
-1.25
-4.45
-7.90
-10.86
-12.61
-12.83
-11.67
-9.62
-7.11
-4.21
-0.66
3.91
9.69
16.55
24.10
31.89
39.57
46.95
53.91
60.25
65.56
69.37
71.23
70.91
68.44
64.08
58.28
51.66
44.86
38.36
32.34
26.53
20.32
13.14
4.70
-4.70
-14.30
-23.17
-30.65
-36.54
-41.13
-44.87
-48.15
-51.11
-53.73
-55.93
-57.66
-58.94
-59.66
-59.60
-58.42
-55.75
-51.34
-45.32
-38.16
-30.49
-22.97
-16.02
-9.78
-4.19
0.86
5.42
9.44
12.85
15.69
18.13
20.42
22.80
25.37
27.99
30.36
32.15
33.11
33.21
32.55
31.30
29.54
27.36
24.82
22.09
19.34
16.67
13.97
10.95
7.31
2.98
-1.74
-6.28
-10.11
-12.98
-15.14
-17.17
-19.67
-22.90
-26.69
-30.57
-34.12
-37.20
-40.05
-43.07
-46.61
-50.75
-55.29
-59.89
-64.10
-67.50
-69.69
-70.29
-68.96
-65.59
-60.38
-53.85
-46.77
-39.86
-33.66
-28.35
-23.82
-19.76
-15.84
-11.71
-7.20
-2.25
3.02
8.33
13.35
17.79
21.58
24.90
28.09
31.56
35.49
39.81
44.19
48.20
51.44
53.75
55.10
55.62
55.42
54.59
53.15
51.10
48.49
45.34
41.71
37.58
32.92
27.71
21.98
15.88
9.65
3.59
-2.03
-7.02
-11.30
-14.92
-17.88
-20.23
-21.93
-23.00
-23.53
-23.72
-23.85
-24.11
-24.49
-24.74
-24.40
-23.02
-20.35
-16.44
-11.68
-6.53
-1.47
3.25
7.54
11.34
14.64
17.36
19.52
21.26
22.91
24.83
27.33
30.45
33.92
37.26
39.92
41.39
41.45
40.13
37.72
34.72
31.68
29.05
27.07
25.66
24.43
22.85
20.37
16.64
11.57
5.42
-1.34
-8.12
-14.42
-19.93
-24.60
-28.61
-32.15
-35.41
-38.39
-40.99
-43.13
-44.77
-45.97
-46.80
-47.34
-47.55
-47.36
-46.80
-46.09
-45.61
-45.75
-46.67
-48.19
-49.79
-50.74
-50.34
-48.14
-44.16
-38.86
-32.84
-26.68
-20.68
-14.94
-9.37
-3.75
2.02
7.74
12.99
17.44
20.93
23.52
25.32
26.46
27.35
28.27
29.08
29.39
28.96
27.80
26.09
23.93
21.25
18.58
16.36
14.31
11.65
7.89
3.00
-2.80
-9.30
-16.54
-23.39
-28.62
-31.98
-33.93
-34.78
-34.39
-32.43
-28.59
-22.63
-12.83
2.26
21.86
43.33
64.08
82.92
100.25
117.60
125.61
118.38
99.35
77.70
59.96
47.67
39.68
33.76
27.48
21.84
16.11
10.89
6.42
2.22
-2.11
-6.41
-10.23
-12.76
-15.60
-17.65
-17.35
-14.61
-10.84
-7.60
-5.80
-5.57
-6.36
-7.31
-6.82
-3.60
2.14
8.98
15.33
20.18
23.17
24.53
24.85
25.27
26.87
30.00
34.23
38.85
43.11
46.21
47.25
45.08
38.74
27.83
12.81
-4.56
-21.41
-34.74
-42.67
-45.35
-44.85
-44.17
-45.80
-50.78
-58.44
-66.93
-74.10
-78.03
-77.35
-71.16
-59.08
-41.60
-20.23
2.51
23.71
40.90
52.85
59.77
62.96
64.07
64.45
64.76
65.07
65.29
65.40
65.64
66.43
68.17
71.27
76.11
82.92
91.47
100.57
108.07
111.31
108.07
97.59
81.01
60.89
40.16
20.95
4.06
-10.81
-24.20
-36.24
-46.39
-53.88
-58.30
-60.08
-60.30
-60.16
-60.41
-61.00
-61.25
-60.40
-58.07
-54.67
-51.22
-48.80
-47.92
-48.24
-48.65
-47.83
-44.88
-39.65
-32.74
-25.11
-17.61
-10.74
-4.57
1.11
6.56
11.99
17.46
22.95
28.38
33.67
38.73
43.50
47.97
52.09
55.86
59.23
62.09
64.26
65.60
65.99
65.48
64.23
62.51
60.61
58.81
57.29
56.21
55.61
55.49
55.65
55.74
55.19
53.36
49.71
43.97
36.31
27.35
18.01
9.12
1.25
-5.55
-11.57
-17.20
-22.64
-27.80
-32.41
-36.25
-39.23
-41.51
-43.29
-44.64
-45.66
-46.57
-47.91
-50.47
-55.09
-62.21
-71.67
-82.70
-94.29
-105.60
-116.19
-126.02
-135.20
-143.67
-151.10
-156.91
-160.55
-161.68
-160.32
-156.70
-151.17
-144.06
-135.60
-126.08
-115.90
-105.59
-95.70
-86.68
-78.73
-71.77
-65.60
-59.90
-54.45
-49.13
-43.90
-38.76
-33.73
-28.77
-23.83
-18.92
-14.17
-9.83
-6.24
-3.76
-2.56
-2.45
-2.89
-3.05
-2.10
0.53
4.91
10.56
16.62
22.08
26.08
28.18
28.40
27.15
24.98
22.39
19.66
16.89
14.09
11.27
8.48
5.74
2.99
0.18
-2.64
-5.17
-6.92
-7.28
-5.91
-2.80
1.67
6.89
12.32
17.56
22.46
26.95
30.98
34.51
37.47
39.86
41.71
43.07
43.95
44.38
44.42
44.11
43.55
42.83
42.04
41.32
40.82
40.68
40.87
41.24
41.45
41.19
40.31
38.92
37.36
35.90
34.66
33.48
32.08
30.31
28.23
26.11
24.21
22.58
21.02
19.21
16.88
13.97
10.66
7.18
3.74
0.42
-2.73
-5.65
-8.19
-10.19
-11.58
-12.51
-13.25
-14.16
-15.49
-17.28
-19.30
-21.13
-22.29
-22.33
-21.01
-18.28
-14.29
-9.34
-3.83
1.87
7.42
12.57
17.21
21.38
25.35
29.49
34.18
39.57
45.52
51.54
56.94
61.16
64.08
66.14
68.28
71.60
76.83
84.01
92.46
101.19
109.42
117.11
124.93
133.88
144.73
157.60
172.06
187.49
203.51
220.09
237.32
255.20
273.74
293.43
315.68
342.50
375.35
413.62
453.76
489.88
515.63
526.64
522.02
504.25
477.49
445.58
410.71
373.40
333.45
291.00
246.90
202.41
158.37
114.90
71.49
27.72
-16.06
-58.57
-97.95
-132.51
-161.59
-185.87
-207.13
-227.57
-248.87
-271.45
-294.32
-315.60
-333.52
-347.49
-358.89
-370.81
-386.80
-408.92
-435.91
-462.84
-482.27
-486.81
-471.57
-435.76
-382.84
-319.60
-254.77
-197.16
-153.87
-128.66
-121.17
-127.32
-140.86
-155.80
-168.59
-179.12
-189.93
-204.38
-224.43
-249.58
-277.33
-304.52
-328.76
-349.30
-367.29
-385.11
-405.04
-427.76
-451.20
-470.37
-478.83
-471.36
-446.44
-407.22
-360.58
-314.76
-276.46
-248.90
-231.53
-221.18
-213.86
-206.09
-195.39
-180.24
-160.08
-135.38
-107.82
-79.92
-54.20
-32.31
-14.48
0.52
14.70
30.00
47.87
68.83
92.30
116.65
139.62
158.26
170.45
175.90
176.41
175.17
175.55
179.99
189.19
202.10
216.03
228.83
240.16
251.71
266.18
285.63
310.32
338.40
366.31
388.56
401.02
402.48
394.20
378.34
356.98
332.28
306.88
283.99
262.86
243.37
227.50
217.87
214.90
216.22
218.37
218.72
216.31
203.56
177.05
141.07
104.55
74.06
51.23
34.58
21.84
11.04
-12.72
-59.39
-127.00
-204.67
-282.44
-355.20
-420.79
-478.06
-526.46
-583.76
-662.58
-760.69
-864.96
-964.58
-1056.71
-1143.75
-1228.75
-1204.02
-1017.95
-709.01
-369.98
-69.25
169.96
348.66
474.77
558.32
611.01
627.97
609.39
567.89
523.50
490.57
472.85
466.52
464.49
459.43
433.18
376.91
298.74
218.33
153.10
110.79
90.19
85.21
88.96
87.96
74.13
48.40
17.80
-11.12
-34.09
-47.53
-47.84
-32.81
-8.02
18.54
40.09
53.22
57.37
54.39
47.76
41.09
36.68
33.34
29.64
25.61
23.55
25.78
33.30
45.19
59.22
72.98
84.28
92.52
98.56
104.27
111.83
123.02
138.63
156.55
174.54
187.88
190.95
179.21
151.66
111.96
67.65
27.19
-3.10
-21.11
-30.22
-35.33
-41.14
-50.35
-63.40
-78.91
-94.24
-105.42
-107.57
-96.90
-72.79
-39.41
-4.73
22.07
34.21
29.53
10.69
-16.09
-43.51
-64.38
-73.01
-66.81
-47.58
-22.26
-1.47
4.40
-10.69
-46.31
-95.82
-149.58
-198.02
-233.59
-250.71
-245.68
-217.97
-171.85
-117.64
-69.05
-38.89
-33.95
-52.75
-86.60
-123.60
-154.14
-169.71
-166.07
-143.58
-106.33
-60.62
-13.49
29.29
64.83
94.11
120.93
148.80
178.59
207.68
231.76
247.11
252.60
249.68
241.06
229.29
215.78
201.87
189.71
182.11
180.48
182.93
183.52
174.04
147.61
101.59
39.26
-31.27
-99.82
-157.30
-197.94
-221.04
-231.28
-237.51
-249.72
-274.54
-311.77
-353.53
-387.24
-401.13
-389.25
-353.39
-301.07
-241.35
-180.97
-122.92
-67.60
-14.93
34.36
79.05
118.67
154.63
189.80
227.28
268.76
313.62
359.48
403.30
442.95
478.27
511.38
546.08
586.33
634.04
687.13
738.78
778.78
796.69
785.62
744.82
679.85
600.09
515.06
431.47
352.27
277.88
208.21
143.98
86.66
37.23
-4.89
-41.96
-76.80
-111.28
-145.35
-177.41
-205.19
-227.40
-244.60
-259.12
-274.24
-293.16
-318.25
-350.59
-389.31
-431.20
-470.47
-499.56
-511.11
-500.81
-469.45
-423.15
-370.92
-321.06
-278.17
-242.62
-212.33
-185.58
-162.67
-145.43
-135.21
-130.89
-128.55
-123.09
-110.88
-91.59
-68.24
-45.63
-27.76
-15.91
-8.26
-1.11
9.28
25.07
46.10
69.96
92.89
110.90
120.98
122.16
115.94
105.81
95.96
89.75
88.72
92.67
100.57
111.45
124.46
138.16
149.79
155.65
152.50
139.41
118.59
94.75
72.69
54.92
40.84
27.83
13.34
-3.48
-21.77
-40.60
-60.63
-84.62
-115.97
-156.29
-203.94
-254.15
-300.86
-338.75
-364.51
-376.98
-376.79
-365.74
-346.32
-321.29
-292.85
-261.69
-226.99
-187.35
-142.41
-94.00
-46.02
-2.99
31.77
57.05
73.40
82.03
84.31
82.47
79.91
80.30
85.25
92.65
97.18
93.42
79.67
59.74
41.40
32.21
35.50
48.85
65.91
79.97
86.70
84.99
75.80
60.48
39.97
15.43
-10.70
-34.61
-52.30
-61.33
-62.40
-59.53
-58.64
-65.34
-82.53
-109.22
-141.08
-171.91
-195.43
-206.72
-203.06
-184.28
-153.04
-114.37
-74.31
-37.99
-7.83
17.05
39.70
62.86
86.86
109.22
126.30
135.74
138.00
135.87
132.39
128.73
123.52
114.25
99.33
79.63
58.33
39.30
25.30
16.90
12.91
11.56
11.64
12.83
15.25
18.70
22.44
25.59
27.64
28.58
28.69
28.18
27.05
25.37
23.53
22.09
21.29
20.70
19.35
16.48
12.22
7.77
4.74
3.96
4.96
6.45
7.44
8.05
9.47
12.88
18.23
24.04
28.26
29.60
28.26
25.60
22.83
19.74
14.88
6.69
-4.80
-17.29
-27.07
-31.22
-29.42
-24.17
-19.23
-17.41
-19.20
-23.15
-27.37
-31.16
-35.38
-41.46
-49.85
-59.13
-66.58
-69.77
-67.78
-61.46
-52.39
-41.59
-28.99
-13.90
3.95
23.64
43.08
59.88
72.26
79.67
83.13
84.78
87.07
91.94
100.15
111.03
122.40
131.16
134.09
128.86
114.82
93.25
67.07
40.07
16.07
-2.01
-12.82
-16.54
-14.63
-9.01
-1.11
8.60
20.48
34.79
50.69
65.72
76.27
78.82
71.54
55.37
33.73
11.12
-8.54
-23.12
-32.73
-39.09
-44.72
-52.20
-63.86
-81.83
-108.23
-145.02
-193.31
-252.41
-319.31
-389.08
-455.91
-514.20
-559.48
-588.16
-596.75
-582.23
-543.37
-482.91
-408.81
-332.70
-265.71
-213.51
-174.12
-139.98
-103.22
-60.75
-15.77
25.31
58.26
84.57
110.68
143.78
186.86
236.61
285.04
323.52
346.61
353.68
347.92
334.40
318.41
304.15
294.11
288.67
286.04
282.91
276.08
263.81
246.56
226.46
205.75
185.48
165.24
144.31
122.85
102.73
86.88
77.69
75.51
77.79
80.05
77.85
68.86
53.87
36.20
19.80
7.50
-0.07
-4.19
-6.79
-9.35
-12.25
-14.97
-16.59
-16.44
-14.43
-11.18
-7.84
-5.66
-5.75
-8.88
-15.26
-24.31
-34.51
-43.39
-48.06
-46.05
-36.19
-19.01
3.56
29.01
55.11
80.49
104.47
126.64
146.37
162.92
175.69
184.58
189.99
192.46
192.38
189.93
185.37
179.24
172.37
165.65
159.65
154.50
149.83
145.08
139.80
133.87
127.67
121.85
116.82
112.33
107.29
100.16
89.51
74.84
56.90
37.60
19.42
4.77
-4.57
-7.87
-5.71
-0.29
4.83
5.57
-1.31
-16.71
-38.58
-62.51
-83.54
-98.06
-105.27
-107.33
-108.36
-113.08
-125.31
-146.87
-176.90
-211.39
-243.34
-263.87
-264.63
-241.05
-194.80
-134.25
-72.15
-21.27
9.85
19.37
11.66
-5.47
-24.22
-39.34
-48.79
-52.94
-53.29
-51.51
-49.21
-47.89
-48.88
-52.90
-59.50
-66.85
-72.15
-72.65
-66.70
-54.71
-39.17
-24.03
-13.30
-9.62
-13.45
-23.10
-35.60
-47.96
-58.17
-65.52
-70.39
-73.69
-76.25
-78.59
-80.89
-83.17
-85.35
-87.48
-89.63
-91.86
-94.05
-95.85
-96.70
-95.96
-93.06
-87.72
-79.98
-70.17
-58.84
-46.60
-34.07
-21.91
-10.69
-0.89
7.15
13.29
17.62
20.43
22.18
23.40
24.56
25.94
27.67
29.71
31.97
34.35
36.68
38.62
39.68
39.27
36.95
32.64
26.85
20.59
15.14
11.65
10.70
12.15
15.21
18.78
21.80
23.63
24.03
23.04
20.73
17.13
12.29
6.51
0.34
-5.48
-10.32
-13.87
-16.23
-17.73
-18.77
-19.67
-20.70
-22.02
-23.76
-25.83
-27.94
-29.59
-30.27
-29.62
-27.51
-24.10
-19.71
-14.69
-9.43
-4.23
0.69
5.19
9.30
13.11
16.73
20.20
23.47
26.40
28.80
30.52
31.41
31.39
30.47
28.83
26.79
24.77
23.12
22.02
21.41
21.10
20.81
20.34
19.61
18.61
17.37
15.93
14.32
12.62
10.91
9.29
7.83
6.53
5.28
3.94
2.40
0.61
-1.37
-3.44
-5.54
-7.66
-9.85
-12.25
-15.02
-18.21
-21.77
-25.51
-29.05
-31.90
-33.61
-33.80
-32.29
-29.12
-24.54
-18.98
-12.93
-6.90
-1.25
3.86
8.46
12.76
17.01
21.40
25.93
30.39
34.36
37.35
38.97
39.03
37.69
35.35
32.56
29.82
27.45
25.46
23.67
21.87
19.85
17.51
14.85
11.87
8.62
5.19
1.75
-1.44
-4.08
-5.94
-6.94
-7.23
-7.18
-7.31
-8.07
-9.69
-12.13
-15.09
-18.20
-21.26
-24.24
-27.26
-30.43
-33.69
-36.77
-39.32
-41.17
-42.36
-43.15
-43.80
-44.24
-44.12
-42.90
-40.15
-35.79
-30.16
-23.90
-17.64
-11.79
-6.44
-1.48
3.25
7.80
12.07
15.86
19.02
21.48
23.32
24.66
25.61
26.21
26.43
26.24
25.68
24.93
24.16
23.59
23.29
23.21
23.21
23.07
22.65
21.92
20.94
19.86
18.82
17.90
17.07
16.20
15.16
13.82
12.11
9.99
7.48
4.65
1.60
-1.47
-4.38
-6.99
-9.36
-11.65
-14.10
-16.88
-19.92
-23.00
-25.78
-28.08
-29.94
-31.61
-33.41
-35.55
-37.94
-40.14
-41.48
-41.19
-38.68
-33.72
-26.51
-17.64
-7.95
1.70
10.58
18.22
24.34
28.93
32.13
34.21
35.55
36.51
37.40
38.39
39.48
40.51
41.23
41.35
40.64
39.03
36.63
33.79
30.95
28.51
26.64
25.30
24.27
23.31
22.31
21.24
20.16
19.06
17.83
16.32
14.46
12.28
9.96
7.71
5.66
3.85
2.14
0.38
-1.56
-3.69
-5.92
-8.11
-10.11
-11.90
-13.53
-15.21
-17.15
-19.55
-22.49
-25.91
-29.66
-33.45
-36.91
-39.62
-41.12
-41.07
-39.33
-35.97
-31.34
-25.88
-19.96
-13.88
-7.70
-1.45
4.82
10.96
16.70
21.74
25.88
29.09
31.45
33.15
34.35
35.11
35.42
35.26
34.59
33.53
32.22
30.89
29.76
29.00
28.64
28.51
28.20
27.05
24.36
19.52
12.27
2.90
-7.85
-18.84
-28.85
-36.79
-42.03
-44.40
-44.31
-42.48
-39.80
-37.08
-34.84
-33.36
-32.72
-32.86
-33.63
-34.82
-36.19
-37.50
-38.67
-39.69
-40.71
-41.75
-42.70
-43.20
-42.78
-41.03
-37.78
-33.15
-27.50
-21.24
-14.79
-8.53
-2.71
2.44
6.82
10.48
13.57
16.35
19.03
21.69
24.29
26.60
28.36
29.40
29.73
29.59
29.38
29.53
30.29
31.61
33.22
34.69
35.68
36.12
36.17
36.15
36.34
36.80
37.35
37.63
37.28
36.07
34.04
31.51
29.04
27.18
26.28
26.20
26.22
25.35
22.64
17.68
10.97
3.79
-2.23
-5.84
-6.77
-5.83
-4.60
-4.62
-6.60
-10.06
-13.41
-14.54
-11.66
-3.91
8.40
23.86
40.50
56.37
70.35
82.74
95.54
112.04
135.63
168.40
209.69
255.57
299.44
333.78
351.92
349.90
326.90
284.75
226.84
156.69
77.03
-10.56
-105.11
-204.85
-305.82
-401.18
-482.11
-540.19
-570.25
-572.36
-551.71
-516.66
-475.74
-435.34
-398.94
-367.92
-342.87
-324.29
-312.23
-305.60
-301.70
-296.88
-287.97
-273.50
-254.04
-231.48
-207.86
-184.04
-159.48
-132.59
-101.46
-64.48
-21.02
27.91
79.03
126.79
164.40
185.78
187.87
171.68
141.72
103.56
61.37
16.63
-30.82
-80.28
-127.92
-166.59
-188.22
-187.57
-165.24
-128.30
-87.74
-54.03
-32.92
-23.47
-18.70
-9.10
13.03
49.85
97.26
146.83
189.67
220.08
236.91
242.04
237.59
224.04
200.66
167.58
127.68
86.42
50.09
23.13
7.16
2.02
8.10
27.66
63.76
117.12
183.06
251.06
307.85
342.16
348.73
329.38
290.84
240.80
184.67
124.75
61.79
-2.52
-63.36
-112.92
-143.01
-148.72
-130.95
-96.15
-53.46
-10.79
27.93
62.89
95.98
127.75
155.72
175.18
181.79
174.31
155.75
132.13
109.95
93.51
83.76
78.72
75.19
70.58
63.89
55.78
47.82
41.34
36.81
33.71
31.10
28.29
25.30
22.68
21.11
20.91
21.79
22.96
23.49
22.74
20.58
17.44
13.97
10.83
8.35
6.40
4.64
2.68
0.33
-2.25
-4.76
-6.92
-8.72
-10.38
-12.27
-14.64
-17.60
-21.18
-25.35
-30.13
-35.34
-40.52
-44.90
-47.65
-48.18
-46.43
-42.86
-38.27
-33.45
-28.96
-25.08
-21.88
-19.37
-17.49
-16.09
-14.83
-13.28
-11.16
-8.59
-6.19
-4.92
-5.76
-9.35
-15.68
-24.09
-33.27
-41.67
-47.73
-50.30
-48.82
-43.42
-34.92
-24.62
-14.01
-4.41
3.21
8.45
11.32
12.24
11.82
10.76
9.70
9.21
9.56
11.08
13.69
16.78
19.47
21.01
21.08
19.58
16.55
11.91
5.99
-0.70
-7.47
-13.63
-18.62
-22.18
-24.57
-26.11
-27.08
-26.49
-23.39
-17.70
-10.52
-3.58
1.61
4.03
3.85
1.71
1.14
4.92
13.58
25.22
37.14
47.35
54.06
57.21
56.79
58.38
66.54
81.84
100.33
116.57
126.61
127.27
119.23
103.67
90.82
89.43
102.14
125.11
152.92
183.18
214.45
249.94
291.11
348.32
427.74
526.68
634.29
738.63
832.67
911.57
977.56
960.90
820.87
570.11
271.81
-6.86
-230.03
-374.58
-467.29
-527.12
-565.57
-578.25
-560.87
-519.74
-467.84
-419.40
-383.10
-364.00
-358.31
-361.91
-363.00
-352.71
-329.37
-298.34
-267.32
-241.40
-224.61
-215.33
-211.98
-208.00
-198.12
-181.18
-160.20
-139.75
-122.84
-111.75
-105.08
-101.32
-96.62
-88.04
-75.02
-59.38
-43.93
-30.63
-20.76
-13.46
-7.59
-1.30
6.56
15.84
25.34
33.52
39.51
42.93
44.34
44.30
43.16
41.07
38.17
34.79
31.33
28.14
25.28
22.46
19.24
15.34
10.88
6.32
2.18
-1.30
-4.49
-8.17
-13.25
-20.27
-29.14
-39.12
-49.03
-57.60
-63.78
-66.86
-66.57
-63.00
-56.42
-47.20
-35.72
-22.39
-7.68
7.87
23.62
38.84
52.84
64.96
74.64
81.38
84.85
84.84
81.39
74.81
65.64
54.59
42.39
29.75
17.32
5.62
-4.96
-14.24
-22.33
-29.57
-36.39
-43.08
-49.61
-55.65
-60.68
-64.30
-66.54
-67.84
-68.98
-70.64
-73.17
-76.44
-79.90
-82.93
-85.05
-86.06
-86.01
-85.04
-83.23
-80.60
-77.13
-72.94
-68.25
-63.30
-58.29
-53.20
-47.89
-42.15
-35.85
-29.10
-22.25
-15.78
-10.11
-5.44
-1.57
2.02
6.09
11.34
18.20
26.56
35.80
44.86
52.60
58.07
60.74
60.62
58.13
54.01
49.11
44.32
40.40
37.75
36.34
35.65
35.00
33.94
32.56
31.58
32.02
34.58
39.17
44.95
50.77
55.84
60.16
64.37
69.17
74.64
79.98
83.87
85.30
84.13
81.18
77.67
74.40
71.25
67.33
61.68
54.22
46.13
39.56
36.65
38.51
44.61
52.83
60.13
63.23
59.29
46.37
24.00
-6.26
-40.48
-72.92
-97.49
-109.81
-108.89
-97.52
-80.98
-64.80
-52.65
-45.44
-42.04
-40.70
-40.28
-40.55
-41.60
-43.03
-43.67
-42.11
-37.58
-30.58
-22.75
-16.12
-12.15
-11.20
-12.49
-14.72
-16.70
-17.73
-17.70
-16.87
-15.63
-14.32
-13.17
-12.27
-11.60
-11.02
-10.29
-9.26
-7.92
-6.46
-5.15
-4.21
-3.68
-3.45
-3.38
-3.47
-3.89
-4.85
-6.49
-8.70
-11.14
-13.40
-15.15
-16.32
-17.01
-17.43
-17.71
-17.82
-17.58
-16.74
-15.18
-12.96
-10.31
-7.58
-5.13
-3.18
-1.81
-1.00
-0.62
-0.52
-0.53
-0.39
0.20
1.49
3.56
6.20
8.98
11.35
12.95
13.73
14.05
14.53
15.84
18.44
22.39
27.40
32.93
38.38
43.39
47.88
52.02
56.12
60.39
64.84
69.29
73.49
77.26
80.57
83.55
86.41
89.42
92.78
96.71
101.40
106.97
113.20
119.40
124.52
127.46
127.70
125.55
122.10
118.57
115.50
112.29
107.28
98.49
84.61
65.62
42.78
18.07
-6.69
-30.22
-51.96
-71.76
-89.55
-105.19
-118.53
-129.55
-138.40
-145.31
-150.50
-154.06
-155.85
-155.62
-153.13
-148.24
-141.06
-131.92
-121.39
-110.14
-98.80
-87.86
-77.49
-67.69
-58.32
-49.29
-40.66
-32.63
-25.46
-19.29
-14.09
-9.63
-5.55
-1.57
2.44
6.33
9.78
12.38
13.77
13.76
12.32
9.65
6.07
1.93
-2.45
-6.95
-11.60
-16.57
-22.01
-28.00
-34.37
-40.81
-46.89
-52.16
-56.21
-58.76
-59.69
-59.06
-57.12
-54.26
-50.91
-47.45
-44.13
-41.02
-38.09
-35.26
-32.41
-29.44
-26.32
-23.05
-19.76
-16.67
-14.00
-11.97
-10.69
-10.15
-10.19
-10.62
-11.22
-11.77
-12.12
-12.18
-11.91
-11.28
-10.23
-8.74
-6.80
-4.49
-2.00
0.42
2.52
4.07
4.92
5.01
4.29
2.73
0.32
-2.94
-6.97
-11.63
-16.78
-22.23
-27.79
-33.30
-38.53
-43.25
-47.24
-50.42
-52.93
-55.10
-57.33
-59.93
-62.85
-65.65
-67.59
-67.85
-65.81
-61.23
-54.32
-45.63
-36.00
-26.44
-17.89
-11.03
-5.96
-1.94
2.35
8.43
17.20
28.43
40.64
51.63
59.21
62.04
59.94
53.81
45.07
35.17
25.33
16.40
9.02
3.66
0.66
0.02
1.39
4.04
7.10
9.85
11.94
13.48
14.88
16.57
18.77
21.40
24.15
26.67
28.69
30.04
30.62
30.33
29.12
27.10
24.62
22.18
20.25
19.07
18.53
18.21
17.57
16.18
13.85
10.70
6.98
2.99
-1.09
-5.12
-9.03
-12.76
-16.23
-19.42
-22.33
-24.98
-27.17
-28.53
-28.51
-26.64
-22.80
-17.40
-11.21
-5.03
0.68
5.98
11.41
17.62
25.05
33.72
43.31
53.31
63.24
72.65
81.16
88.42
94.21
98.61
101.99
104.84
107.56
110.22
112.62
114.39
115.31
115.41
114.94
114.21
113.25
111.72
108.92
103.97
96.20
85.42
72.07
57.16
41.97
27.70
15.11
4.39
-4.77
-12.83
-20.20
-27.06
-33.44
-39.33
-44.72
-49.62
-53.98
-57.61
-60.19
-61.36
-60.90
-58.86
-55.60
-51.75
-48.02
-45.02
-43.07
-42.14
-41.91
-41.83
-41.32
-39.95
-37.57
-34.31
-30.57
-26.85
-23.67
-21.41
-20.24
-20.08
-20.59
-21.28
-21.57
-21.03
-19.47
-16.98
-13.94
-10.82
-8.04
-5.86
-4.39
-3.61
-3.48
-3.93
-4.80
-5.84
-6.75
-7.31
-7.46
-7.36
-7.36
-7.81
-8.95
-10.83
-13.30
-16.14
-19.17
-22.27
-25.32
-28.17
-30.64
-32.60
-34.07
-35.23
-36.38
-37.80
-39.62
-41.73
-43.93
-46.04
-48.03
-49.95
-51.82
-53.46
-54.43
-54.26
-52.74
-50.13
-47.18
-44.80
-43.60
-43.51
-43.70
-42.98
-40.26
-35.05
-27.65
-18.80
-9.41
-0.08
8.94
17.67
26.18
34.40
42.18
49.29
55.64
61.22
66.00
69.87
72.67
74.20
74.45
73.53
71.71
69.32
66.70
64.23
62.32
61.29
61.27
62.10
63.34
64.45
65.09
65.25
65.16
65.07
65.02
64.80
64.08
62.66
60.56
57.94
54.89
51.36
47.16
42.22
36.75
31.26
26.26
22.01
18.32
14.72
10.76
6.33
1.70
-2.61
-6.12
-8.62
-10.11
-10.75
-10.64
-9.76
-8.00
-5.36
-1.98
1.83
5.59
8.86
11.32
12.86
13.45
13.05
11.46
8.32
3.34
-3.41
-11.41
-19.65
-27.09
-33.07
-37.57
-41.19
-44.82
-49.24
-54.82
-61.51
-68.93
-76.53
-83.62
-89.48
-93.47
-95.19
-94.75
-92.76
-90.17
-87.81
-86.03
-84.41
-81.94
-77.38
-69.71
-58.54
-44.26
-27.85
-10.72
5.70
20.19
31.92
40.47
45.78
48.04
47.51
44.49
39.26
32.26
24.19
16.19
9.63
5.88
5.73
9.18
15.41
23.11
31.09
38.59
45.41
51.59
57.04
61.45
64.33
65.48
65.21
64.37
64.00
64.81
66.86
69.49
71.63
72.24
70.74
67.13
62.01
56.29
51.03
47.11
44.97
44.47
44.93
45.37
44.85
42.91
39.69
35.80
31.99
28.85
26.65
25.40
24.85
24.39
22.81
18.33
9.13
-5.64
-25.05
-46.22
-65.15
-78.31
-84.14
-83.64
-79.68
-75.59
-73.72
-74.82
-78.28
-83.02
-88.13
-93.03
-97.14
-99.58
-99.26
-95.32
-87.74
-77.57
-66.56
-56.49
-48.48
-42.56
-37.97
-33.61
-28.71
-22.97
-16.64
-10.20
-4.08
1.40
5.96
9.24
10.82
10.39
7.96
4.14
-0.04
-3.38
-5.03
-4.74
-3.02
-0.79
1.07
2.05
2.10
1.43
0.24
-1.50
-3.86
-6.74
-9.64
-11.76
-12.34
-11.03
-8.13
-4.47
-1.04
1.41
2.55
2.51
1.67
0.43
-0.90
-2.14
-3.13
-3.68
-3.55
-2.48
-0.19
3.52
8.76
15.40
23.07
31.10
38.69
45.01
49.57
52.28
53.51
53.87
54.02
54.48
55.67
57.89
61.30
65.89
71.29
76.77
81.45
84.61
86.02
86.02
85.43
85.08
85.50
86.73
88.41
90.05
91.34
92.31
93.28
94.60
96.34
98.15
99.38
99.43
98.16
96.15
94.41
93.90
95.05
97.62
100.94
104.38
107.71
110.93
113.98
116.31
116.82
114.17
107.29
95.64
79.32
58.77
34.72
8.17
-19.62
-47.23
-73.39
-97.23
-118.50
-137.28
-153.56
-166.97
-176.85
-182.69
-184.50
-183.02
-179.38
-174.60
-169.26
-163.46
-157.03
-150.00
-142.65
-135.48
-128.87
-123.01
-117.86
-113.24
-108.97
-104.97
-101.16
-97.53
-93.98
-90.39
-86.58
-82.24
-76.94
-70.31
-62.21
-52.97
-43.35
-34.32
-26.78
-21.15
-17.33
-14.76
-12.82
-11.07
-9.35
-7.79
-6.61
-5.98
-5.99
-6.68
-8.01
-9.91
-12.20
-14.62
-16.94
-19.06
-21.16
-23.61
-26.83
-31.03
-36.02
-41.29
-46.09
-49.75
-51.80
-52.12
-50.81
-48.20
-44.61
-40.40
-35.86
-31.17
-26.50
-21.98
-17.70
-13.72
-9.99
-6.40
-2.77
1.04
5.01
9.00
12.73
15.97
18.56
20.52
21.92
22.89
23.45
23.60
23.35
22.79
22.05
21.30
20.63
20.11
19.80
19.78
20.19
21.10
22.49
24.17
25.86
27.30
28.32
28.83
28.86
28.42
27.64
26.65
25.72
25.12
25.02
25.38
25.93
26.25
25.96
24.82
22.75
19.81
16.09
11.76
7.03
2.12
-2.74
-7.41
-11.89
-16.30
-20.86
-25.70
-30.86
-36.13
-41.11
-45.26
-48.05
-49.06
-48.17
-45.57
-41.72
-37.19
-32.39
-27.48
-22.30
-16.62
-10.29
-3.45
3.48
10.00
15.75
20.66
24.92
28.76
32.21
35.07
36.99
37.65
37.06
35.50
33.43
31.20
28.95
26.57
23.82
20.54
16.74
12.69
8.75
5.31
2.66
0.93
0.10
0.06
0.65
1.63
2.83
4.01
4.99
5.66
6.01
6.12
6.22
6.57
7.52
9.32
12.07
15.64
19.72
23.94
28.02
31.86
35.55
39.27
43.11
46.94
50.49
53.36
55.23
55.88
55.22
53.28
50.24
46.36
41.99
37.48
33.03
28.77
24.69
20.87
17.46
14.63
12.52
11.03
9.88
8.70
7.14
5.09
2.64
0.04
-2.45
-4.60
-6.28
-7.42
-8.09
-8.49
-9.04
-10.28
-12.71
-16.46
-21.20
-26.27
-30.91
-34.61
-37.30
-39.27
-40.96
-42.64
-44.41
-46.16
-47.77
-49.28
-50.81
-52.53
-54.40
-56.13
-57.21
-57.10
-55.38
-51.94
-47.00
-41.10
-34.86
-28.84
-23.36
-18.52
-14.26
-10.46
-7.06
-3.93
-0.91
2.24
5.74
9.68
13.93
18.15
21.98
25.12
27.48
29.09
30.10
30.61
30.72
30.51
30.06
29.46
28.71
27.67
26.16
23.94
20.90
17.04
12.48
7.37
1.90
-3.81
-9.60
-15.38
-21.03
-26.46
-31.62
-36.46
-41.03
-45.37
-49.60
-53.82
-58.10
-62.40
-66.58
-70.46
-73.87
-76.70
-78.85
-80.22
-80.71
-80.25
-78.81
-76.44
-73.16
-68.87
-63.33
-56.26
-47.53
-37.29
-25.87
-13.64
-0.77
12.80
27.17
42.20
57.32
71.74
84.72
96.00
105.84
114.80
123.27
131.20
138.11
143.34
146.52
147.68
147.16
145.30
142.29
138.11
132.75
126.40
119.49
112.53
105.89
99.70
93.81
88.02
82.24
76.53
71.06
65.96
61.26
56.97
53.09
49.65
46.65
44.02
41.55
38.96
35.99
32.57
28.83
25.11
21.74
18.99
16.82
14.93
12.87
10.21
6.80
2.82
-1.15
-4.52
-6.94
-8.68
-10.52
-13.37
-17.79
-23.55
-29.74
-35.15
-38.84
-40.49
-40.33
-38.86
-36.46
-33.26
-29.32
-24.89
-20.53
-17.01
-14.88
-14.18
-14.38
-14.60
-14.10
-12.56
-10.21
-7.61
-5.42
-4.10
-3.79
-4.44
-5.92
-8.12
-10.95
-14.27
-17.78
-21.06
-23.70
-25.52
-26.73
-27.84
-29.38
-31.61
-34.41
-37.23
-39.50
-40.92
-41.62
-42.10
-42.91
-44.38
-46.47
-48.88
-51.25
-53.41
-55.47
-57.68
-60.19
-62.89
-65.32
-66.79
-66.64
-64.48
-60.28
-54.38
-47.41
-39.99
-32.67
-25.85
-19.72
-14.33
-9.60
-5.36
-1.41
2.49
6.43
10.33
13.96
16.96
18.98
19.84
19.55
18.25
16.17
13.54
10.59
7.60
4.88
2.74
1.36
0.67
0.34
-0.08
-0.86
-2.05
-3.37
-4.34
-4.55
-3.84
-2.29
-0.22
2.01
4.08
5.75
6.83
7.16
6.63
5.26
3.28
1.06
-1.03
-2.73
-4.07
-5.23
-6.50
-8.09
-10.07
-12.36
-14.88
-17.53
-20.19
-22.61
-24.41
-25.11
-24.31
-21.88
-17.95
-12.93
-7.35
-1.64
3.81
8.80
13.21
17.00
20.22
23.00
25.42
27.57
29.37
30.63
31.15
30.80
29.63
27.80
25.50
22.89
20.03
16.92
13.59
10.13
6.75
3.65
1.07
-0.88
-2.28
-3.29
-4.10
-4.83
-5.50
-6.00
-6.19
-6.03
-5.65
-5.30
-5.27
-5.74
-6.74
-8.15
-9.80
-11.52
-13.28
-15.12
-17.13
-19.45
-22.22
-25.53
-29.41
-33.64
-37.83
-41.35
-43.53
-43.87
-42.16
-38.57
-33.55
-27.66
-21.50
-15.50
-9.99
-5.19
-1.18
2.06
4.73
7.12
9.50
12.00
14.53
16.78
18.41
19.21
19.22
18.75
18.25
18.04
18.31
19.03
20.13
21.53
23.24
25.27
27.52
29.74
31.61
32.86
33.40
33.39
33.06
32.65
32.23
31.72
31.09
30.41
29.97
30.06
30.85
32.20
33.72
34.98
35.67
35.77
35.31
34.21
32.05
28.11
21.59
11.96
-0.76
-16.02
-32.90
-50.31
-67.06
-81.87
-93.41
-100.55
-102.76
-100.33
-94.49
-86.96
-79.44
-73.02
-67.97
-63.82
-59.80
-55.18
-49.56
-42.95
-35.65
-28.16
-21.06
-14.97
-10.35
-7.47
-6.38
-6.88
-8.69
-11.40
-14.57
-17.80
-20.66
-22.82
-24.09
-24.46
-24.13
-23.39
-22.55
-21.80
-21.16
-20.41
-19.14
-16.96
-13.55
-8.87
-3.21
2.91
8.83
13.91
17.71
20.17
21.64
22.86
24.82
28.41
34.20
42.16
51.75
62.03
71.92
80.46
86.99
91.18
93.02
92.87
91.31
89.14
87.07
85.59
84.67
83.84
82.33
79.38
74.63
68.22
60.86
53.60
47.43
42.96
40.21
38.70
37.64
36.38
34.54
32.20
29.69
27.44
25.71
24.57
23.93
23.69
23.79
24.27
25.09
26.13
27.17
27.98
28.42
28.59
28.67
28.81
28.95
28.79
27.89
25.91
22.68
18.32
13.11
7.40
1.52
-4.33
-10.07
-15.79
-21.61
-27.71
-34.12
-40.82
-47.73
-54.70
-61.56
-68.04
-73.71
-78.11
-80.80
-81.56
-80.50
-77.99
-74.48
-70.31
-65.64
-60.52
-55.01
-49.26
-43.47
-37.85
-32.56
-27.70
-23.31
-19.44
-16.14
-13.40
-11.17
-9.33
-7.71
-6.22
-4.80
-3.41
-1.99
-0.42
1.39
3.45
5.59
7.45
8.61
8.80
7.99
6.47
4.74
3.24
2.19
1.50
0.91
0.16
-0.89
-2.18
-3.56
-4.97
-6.46
-8.19
-10.32
-12.84
-15.60
-18.38
-20.98
-23.37
-25.67
-28.06
-30.69
-33.57
-36.49
-39.13
-41.13
-42.19
-42.24
-41.45
-40.19
-38.83
-37.62
-36.58
-35.64
-34.75
-34.10
-34.08
-35.06
-37.11
-39.92
-42.86
-45.28
-46.82
-47.53
-47.71
-47.63
-47.30
-46.41
-44.46
-40.96
-35.55
-28.07
-18.48
-6.85
6.53
20.99
35.52
48.89
60.03
68.45
74.37
78.75
82.79
87.46
93.03
98.89
103.81
106.42
105.73
101.55
94.48
85.66
76.27
67.17
58.69
50.63
42.49
33.78
24.16
13.59
2.32
-9.21
-20.47
-31.01
-40.52
-48.94
-56.36
-62.93
-68.74
-73.74
-77.81
-80.84
-82.73
-83.45
-83.17
-82.23
-81.25
-81.05
-82.30
-85.17
-89.09
-92.82
-94.76
-93.56
-88.84
-81.39
-72.88
-65.05
-58.80
-53.81
-48.75
-41.91
-31.89
-18.19
-1.09
18.70
40.44
63.70
87.85
111.82
134.07
152.99
167.40
176.82
181.61
182.68
181.42
178.71
174.85
169.78
163.57
156.42
148.54
140.12
131.30
123.13
116.03
109.96
104.74
100.56
97.75
96.41
96.29
97.07
99.83
104.86
111.84
120.13
129.41
139.28
148.71
156.03
159.47
159.16
154.27
143.31
124.80
98.59
65.85
28.36
-11.94
-63.15
-121.56
-176.25
-217.44
-242.91
-255.41
-258.24
-253.64
-243.09
-227.93
-208.24
-187.90
-168.81
-153.00
-141.19
-132.58
-125.90
-120.33
-115.66
-110.79
-105.73
-100.99
-96.24
-90.94
-84.28
-75.86
-65.98
-54.95
-41.80
-26.02
-8.19
9.45
23.85
32.17
32.92
26.08
14.05
1.27
-8.38
-13.23
-14.33
-13.86
-13.25
-11.93
-8.71
-1.16
13.56
37.02
68.22
103.60
138.75
169.91
194.30
208.17
209.52
199.71
183.76
168.19
158.15
155.03
154.89
148.87
123.76
70.50
-10.49
-108.35
-206.32
-288.15
-343.12
-369.02
-356.90
-311.39
-252.32
-203.04
-173.41
-157.63
-144.56
-127.74
-108.93
-94.94
-95.97
-111.39
-132.40
-146.61
-145.55
-128.31
-100.05
-67.51
-34.96
-4.80
23.25
47.69
64.87
70.20
61.79
43.92
26.40
19.17
24.86
37.88
47.79
46.36
32.82
14.23
0.67
-1.30
7.46
19.55
27.50
29.08
29.09
35.52
53.64
82.12
113.38
137.43
146.22
137.14
113.19
80.84
47.03
16.93
-6.90
-24.16
-35.95
-43.44
-47.08
-46.95
-43.54
-38.86
-36.22
-38.78
-47.67
-61.31
-76.25
-89.18
-98.70
-105.55
-111.30
-116.60
-120.34
-120.46
-115.57
-106.25
-94.97
-84.97
-78.56
-76.34
-77.35
-80.20
-83.93
-88.43
-94.00
-100.49
-106.69
-110.34
-108.91
-100.67
-85.53
-65.07
-41.88
-18.47
3.51
23.48
41.59
58.12
73.18
86.78
99.05
110.46
121.66
133.26
145.56
158.49
171.64
184.51
196.74
208.11
218.45
227.60
235.41
241.77
246.65
249.99
251.71
251.67
249.84
246.51
242.46
238.82
236.71
236.73
238.61
241.31
243.50
244.12
242.80
239.87
235.91
231.38
226.21
219.97
212.07
202.06
189.69
174.98
158.08
139.35
119.59
100.05
82.17
67.04
54.72
44.07
33.04
19.48
2.08
-19.18
-43.17
-68.15
-92.42
-114.79
-134.68
-152.01
-166.96
-179.85
-190.90
-200.23
-207.84
-213.69
-217.74
-219.85
-219.76
-216.97
-210.93
-201.47
-189.12
-175.12
-160.93
-147.41
-134.20
-119.81
-102.37
-80.88
-56.04
-30.24
-6.80
11.07
21.21
22.84
16.62
4.44
-10.86
-25.93
-37.61
-43.73
-43.65
-38.38
-30.09
-21.38
-14.63
-11.55
-13.06
-19.22
-29.15
-41.09
-52.77
-61.99
-67.38
-68.68
-66.69
-62.66
-57.67
-52.28
-46.58
-40.49
-34.06
-27.60
-21.54
-16.28
-12.06
-8.96
-6.98
-6.06
-6.24
-7.55
-10.07
-13.74
-18.36
-23.47
-28.35
-32.30
-34.76
-35.57
-34.96
-33.42
-31.53
-29.67
-27.97
-26.36
-24.68
-22.82
-20.83
-18.89
-17.26
-16.15
-15.62
-15.52
-15.63
-15.72
-15.72
-15.69
-15.78
-16.03
-16.35
-16.47
-16.11
-15.15
-13.70
-12.06
-10.58
-9.55
-9.07
-9.07
-9.37
-9.80
-10.20
-10.52
-10.81
-11.17
-11.82
-12.91
-14.55
-16.71
-19.13
-21.39
-22.99
-23.44
-22.45
-20.03
-16.45
-12.15
-7.57
-3.04
1.29
5.42
9.42
13.31
17.05
20.52
23.60
26.20
28.29
29.87
30.93
31.41
31.23
30.34
28.82
26.89
24.80
22.81
21.07
19.58
18.31
17.18
16.17
15.22
14.22
13.00
11.38
9.34
7.04
4.77
2.79
1.21
-0.10
-1.40
-3.00
-5.06
-7.66
-10.71
-14.11
-17.73
-21.33
-24.56
-27.00
-28.25
-28.06
-26.39
-23.47
-19.60
-15.11
-10.24
-5.17
-0.06
4.91
9.60
13.88
17.66
20.89
23.57
25.65
27.13
28.02
28.36
28.26
27.81
27.16
26.41
25.59
24.71
23.77
22.75
21.63
20.52
19.52
18.73
18.24
18.01
17.93
17.83
17.56
17.03
16.24
15.27
14.20
13.03
11.64
9.90
7.68
5.00
1.99
-1.11
-4.16
-7.09
-10.01
-13.08
-16.49
-20.33
-24.59
-29.09
-33.52
-37.48
-40.49
-42.08
-41.96
-40.01
-36.38
-31.47
-25.80
-19.89
-14.19
-8.92
-4.11
0.39
4.70
8.90
12.86
16.34
19.05
20.82
21.66
21.74
21.30
20.60
19.87
19.26
18.90
18.89
19.22
19.79
20.36
20.70
20.63
20.13
19.35
18.50
17.74
17.09
16.48
15.73
14.73
13.47
12.11
10.86
9.87
9.20
8.68
8.08
7.07
5.45
3.18
0.31
-2.93
-6.35
-9.72
-12.88
-15.74
-18.19
-20.13
-21.38
-21.68
-20.73
-18.21
-13.93
-7.96
-0.67
7.26
15.05
21.85
27.03
30.22
31.37
30.69
28.55
25.37
21.54
17.46
13.48
9.91
6.97
4.64
2.78
1.13
-0.53
-2.27
-3.93
-5.31
-6.22
-6.67
-6.84
-6.98
-7.30
-7.89
-8.69
-9.63
-10.63
-11.73
-12.96
-14.44
-16.19
-18.19
-20.32
-22.37
-24.10
-25.29
-25.84
-25.75
-25.15
-24.21
-23.13
-22.10
-21.32
-20.97
-21.16
-21.84
-22.76
-23.44
-23.35
-22.06
-19.41
-15.51
-10.72
-5.47
-0.16
4.87
9.38
13.19
16.19
18.38
19.84
20.71
21.13
21.23
21.03
20.55
19.80
18.83
17.67
16.38
14.96
13.45
11.86
10.18
8.41
6.54
4.55
2.46
0.33
-1.76
-3.70
-5.47
-7.14
-8.83
-10.71
-12.90
-15.43
-18.22
-21.13
-23.99
-26.67
-29.06
-31.16
-33.13
-35.25
-37.85
-41.14
-45.07
-49.19
-52.74
-54.81
-54.65
-51.88
-46.54
-39.10
-30.36
-21.22
-12.53
-4.86
1.59
7.01
11.86
16.55
21.24
25.78
29.80
32.94
35.00
36.14
36.64
36.83
36.94
37.08
37.28
37.59
38.07
38.73
39.51
40.21
40.59
40.42
39.60
38.16
36.29
34.24
32.22
30.37
28.64
26.91
24.94
22.56
19.66
16.24
12.43
8.40
4.35
0.37
-3.54
-7.47
-11.57
-15.95
-20.60
-25.41
-30.20
-34.76
-38.93
-42.47
-45.17
-46.72
-46.84
-45.36
-42.32
-37.96
-32.72
-27.03
-21.23
-15.49
-9.90
-4.49
0.70
5.63
10.23
14.46
18.26
21.51
24.02
25.64
26.27
25.92
24.76
23.00
20.89
18.71
16.70
15.03
13.82
13.09
12.73
12.54
12.34
11.94
11.23
10.15
8.72
7.06
5.37
3.93
2.93
2.45
2.37
2.43
2.33
1.84
0.86
-0.63
-2.58
-4.87
-7.39
-9.97
-12.42
-14.55
-16.29
-17.65
-18.80
-19.97
-21.38
-23.15
-25.22
-27.32
-29.07
-29.97
-29.61
-27.75
-24.40
-19.85
-14.57
-9.10
-3.88
0.82
4.92
8.45
11.46
14.01
16.08
17.71
18.96
19.93
20.71
21.26
21.57
21.52
21.09
20.37
19.53
18.76
18.24
18.04
18.17
18.58
19.16
19.81
20.36
20.58
20.18
19.00
17.05
14.56
11.92
9.46
7.36
5.55
3.76
1.75
-0.59
-3.18
-5.84
-8.47
-11.09
-13.85
-16.89
-20.24
-23.76
-27.24
-30.46
-33.26
-35.54
-37.15
-37.89
-37.47
-35.63
-32.28
-27.53
-21.76
-15.41
-8.91
-2.54
3.53
9.23
14.46
19.13
23.13
26.43
29.00
30.93
32.24
32.96
33.16
32.86
32.13
31.05
29.65
27.90
25.78
23.27
20.38
17.18
13.70
9.97
5.98
1.77
-2.57
-6.84
-10.80
-14.17
-16.77
-18.54
-19.64
-20.38
-21.14
-22.18
-23.59
-25.15
-26.49
-27.28
-27.35
-26.87
-26.19
-25.79
-26.00
-26.94
-28.54
-30.56
-32.60
-34.13
-34.59
-33.45
-30.40
-25.51
-19.22
-12.27
-5.44
0.70
5.88
10.09
13.48
16.22
18.39
20.02
21.12
21.71
21.81
21.38
20.40
18.85
16.74
14.21
11.45
8.65
6.01
3.60
1.40
-0.66
-2.60
-4.43
-6.09
-7.48
-8.60
-9.49
-10.26
-10.99
-11.73
-12.44
-13.02
-13.46
-13.73
-13.92
-14.07
-14.18
-14.20
-14.07
-13.82
-13.52
-13.35
-13.46
-14.01
-15.12
-16.86
-19.23
-22.11
-25.16
-27.87
-29.54
-29.49
-27.25
-22.74
-16.33
-8.73
-0.75
6.93
13.90
20.06
25.52
30.42
34.90
39.02
42.73
45.95
48.57
50.47
51.53
51.71
50.99
49.47
47.30
44.69
41.89
39.20
36.91
35.26
34.38
34.16
34.26
34.27
33.77
32.51
30.44
27.64
24.28
20.48
16.35
11.99
7.51
3.02
-1.43
-5.86
-10.36
-14.99
-19.80
-24.74
-29.71
-34.63
-39.39
-43.98
-48.38
-52.46
-55.98
-58.54
-59.63
-58.85
-56.05
-51.49
-45.75
-39.60
-33.69
-28.31
-23.40
-18.68
-13.86
-8.82
-3.71
1.21
5.64
9.40
12.40
14.65
16.17
16.97
17.03
16.33
14.97
13.09
10.94
8.71
6.58
4.59
2.70
0.87
-0.85
-2.33
-3.46
-4.28
-4.90
-5.53
-6.28
-7.18
-8.16
-9.05
-9.77
-10.40
-11.16
-12.27
-13.84
-15.82
-18.08
-20.56
-23.22
-26.14
-29.49
-33.30
-37.40
-41.27
-44.27
-45.80
-45.63
-43.49
-39.44
-33.95
-27.96
-22.50
-18.33
-15.72
-14.48
-14.12
-13.37
-11.10
-7.10
-2.28
1.85
4.05
3.73
1.17
-2.99
-6.55
-7.35
-4.35
1.77
9.30
16.42
21.82
25.05
26.21
27.66
32.23
41.73
56.26
74.80
96.14
119.14
142.62
156.29
151.48
126.67
89.79
52.05
21.10
-0.71
-14.99
-22.99
-28.57
-32.39
-33.58
-31.47
-26.81
-21.20
-15.74
-12.32
-10.75
-10.36
-8.88
-4.52
3.04
12.45
21.64
29.03
33.84
36.24
36.39
35.45
34.64
34.72
35.70
37.14
38.46
39.12
38.79
37.04
34.06
30.27
26.03
21.54
16.94
12.40
8.19
4.58
1.48
-1.20
-3.58
-5.80
-7.85
-9.57
-10.80
-11.41
-11.42
-11.07
-10.53
-9.89
-9.12
-8.17
-7.04
-5.85
-4.68
-3.46
-1.94
0.21
3.25
7.27
12.06
17.31
22.64
27.78
32.44
36.36
39.18
40.59
40.47
39.15
37.34
35.99
35.98
37.76
41.19
45.68
50.35
54.36
57.10
58.26
57.80
55.85
52.67
48.51
43.64
38.29
32.59
26.66
20.54
14.27
7.85
1.27
-5.51
-12.51
-19.70
-26.92
-33.96
-40.55
-46.50
-51.78
-56.58
-61.16
-65.77
-70.49
-75.13
-79.31
-82.60
-84.68
-85.47
-85.16
-84.14
-82.87
-81.74
-80.93
-80.39
-79.85
-79.06
-77.87
-76.37
-74.86
-73.66
-72.94
-72.65
-72.43
-71.81
-70.23
-67.22
-62.48
-55.94
-47.77
-38.41
-28.47
-18.60
-9.37
-1.11
6.09
12.27
17.61
22.31
26.55
30.46
34.13
37.49
40.35
42.41
43.43
43.30
42.19
40.46
38.57
36.86
35.39
34.05
32.56
30.69
28.34
25.49
22.25
18.72
15.03
11.31
7.69
4.29
1.18
-1.63
-4.23
-6.78
-9.44
-12.35
-15.56
-18.99
-22.39
-25.35
-27.46
-28.41
-28.19
-27.14
-25.85
-25.01
-25.09
-26.26
-28.24
-30.53
-32.53
-33.86
-34.41
-34.29
-33.74
-32.97
-32.10
-31.08
-29.81
-28.06
-25.66
-22.38
-18.15
-13.00
-7.12
-0.86
5.34
11.08
15.96
19.69
22.10
23.23
23.32
22.87
22.41
22.44
23.17
24.50
26.07
27.42
28.12
27.90
26.70
24.59
21.75
18.41
14.77
11.05
7.48
4.32
1.87
0.30
-0.40
-0.53
-0.63
-1.31
-3.07
-6.14
-10.48
-15.84
-21.96
-28.61
-35.71
-43.23
-51.19
-59.58
-68.35
-77.34
-86.24
-94.60
-101.86
-107.52
-111.30
-113.20
-113.48
-112.58
-110.96
-108.97
-106.66
-103.71
-99.52
-93.38
-84.80
-73.75
-60.69
-46.41
-31.69
-16.98
-2.42
12.03
26.23
39.83
52.19
62.82
71.51
78.43
83.96
88.47
92.15
95.06
97.16
98.49
99.13
99.23
98.93
98.30
97.31
95.83
93.75
91.03
87.82
84.45
81.30
78.64
76.41
74.23
71.51
67.77
62.75
56.50
49.22
41.21
32.71
24.00
15.43
7.39
0.22
-5.99
-11.39
-16.30
-20.98
-25.38
-29.17
-31.87
-33.15
-33.02
-31.88
-30.32
-28.83
-27.54
-26.25
-24.56
-22.10
-18.72
-14.48
-9.50
-3.71
3.20
11.68
22.03
34.14
47.44
61.03
74.06
85.99
96.72
106.49
115.66
124.54
133.19
141.48
149.17
155.88
161.24
164.85
166.26
164.95
160.42
152.28
140.46
125.24
107.20
87.02
65.28
42.31
18.45
-5.74
-29.26
-50.74
-68.79
-82.48
-91.68
-97.09
-99.94
-101.49
-102.59
-103.56
-104.25
-104.34
-103.57
-101.90
-99.48
-96.56
-93.36
-89.94
-86.27
-82.29
-77.97
-73.39
-68.73
-64.23
-60.13
-56.53
-53.41
-50.59
-47.82
-44.86
-41.68
-38.42
-35.32
-32.57
-30.16
-27.96
-25.76
-23.45
-21.06
-18.70
-16.44
-14.21
-11.82
-9.06
-5.84
-2.26
1.50
5.24
8.82
12.16
15.12
17.43
18.72
18.68
17.20
14.56
11.34
8.24
5.77
4.09
2.94
1.87
0.41
-1.70
-4.46
-7.60
-10.77
-13.56
-15.56
-16.38
-15.75
-13.62
-10.19
-5.98
-1.67
2.17
5.21
7.46
9.20
10.74
12.32
13.96
15.61
17.10
18.40
19.47
20.34
20.95
21.19
20.94
20.16
18.94
17.53
16.26
15.50
15.45
16.09
17.19
18.33
19.12
19.30
18.92
18.24
17.64
17.42
17.70
18.35
19.18
20.05
20.97
22.06
23.40
24.91
26.38
27.55
28.24
28.56
28.78
29.20
29.93
30.78
31.29
30.89
29.04
25.45
20.13
13.39
5.81
-1.86
-8.81
-14.39
-18.25
-20.48
-21.51
-22.03
-22.69
-24.00
-26.20
-29.31
-33.21
-37.66
-42.37
-46.94
-50.95
-53.95
-55.64
-55.92
-54.84
-52.59
-49.39
-45.42
-40.85
-35.82
-30.53
-25.19
-19.98
-15.06
-10.51
-6.41
-2.78
0.37
3.05
5.37
7.49
9.51
11.44
13.16
14.44
15.07
14.93
14.02
12.44
10.31
7.76
4.91
1.87
-1.17
-4.03
-6.59
-8.85
-10.93
-13.03
-15.34
-18.00
-21.04
-24.41
-28.00
-31.60
-34.93
-37.69
-39.58
-40.35
-39.80
-37.86
-34.57
-30.12
-24.87
-19.32
-13.97
-9.17
-5.03
-1.38
2.04
5.49
9.03
12.50
15.61
18.07
19.69
20.46
20.51
20.06
19.31
18.48
17.72
17.12
16.71
16.42
16.09
15.48
14.38
12.69
10.50
8.01
5.54
3.35
1.65
0.45
-0.34
-0.94
-1.62
-2.68
-4.34
-6.68
-9.60
-12.90
-16.26
-19.48
-22.47
-25.28
-28.00
-30.78
-33.74
-36.93
-40.33
-43.76
-46.83
-48.99
-49.62
-48.24
-44.64
-39.05
-31.99
-24.20
-16.36
-8.99
-2.32
3.62
8.96
13.86
18.43
22.73
26.71
30.31
33.38
35.75
37.29
37.94
37.76
36.93
35.69
34.25
32.77
31.32
29.94
28.70
27.64
26.81
26.11
25.36
24.41
23.21
21.85
20.54
19.47
18.64
17.87
16.93
15.60
13.88
11.88
9.83
7.85
5.92
3.90
1.63
-1.01
-4.00
-7.27
-10.71
-14.22
-17.71
-21.09
-24.29
-27.25
-30.06
-32.85
-35.78
-38.82
-41.68
-43.79
-44.49
-43.23
-39.83
-34.53
-27.97
-20.87
-13.87
-7.37
-1.52
3.68
8.31
12.44
16.11
19.40
22.33
24.86
26.87
28.17
28.60
28.11
26.94
25.42
23.99
22.96
22.48
22.53
22.93
23.51
24.00
24.20
23.98
23.26
22.10
20.67
19.15
17.69
16.32
15.00
13.62
12.10
10.37
8.42
6.21
3.75
1.03
-1.91
-4.98
-8.08
-11.17
-14.23
-17.29
-20.36
-23.49
-26.68
-29.90
-33.07
-36.11
-38.95
-41.58
-44.05
-46.41
-48.59
-50.34
-51.25
-50.83
-48.68
-44.68
-38.98
-32.05
-24.46
-16.75
-9.32
-2.42
3.88
9.54
14.57
18.96
22.73
25.83
28.22
29.80
30.47
30.15
28.85
26.69
23.92
20.83
17.68
14.67
11.91
9.41
7.11
4.87
2.49
-0.30
-3.71
-7.86
-12.70
-17.98
-23.40
-28.72
-33.85
-38.83
-43.80
-48.87
-54.10
-59.41
-64.74
-69.96
-74.89
-79.28
-82.78
-85.00
-85.68
-84.72
-82.30
-78.76
-74.49
-69.78
-64.74
-59.24
-53.00
-45.68
-36.98
-26.74
-14.88
-1.50
13.25
28.96
45.07
60.81
75.42
88.32
99.26
108.38
116.14
123.10
129.70
136.21
142.66
148.93
154.84
160.25
165.08
169.24
172.70
175.38
177.18
178.03
177.93
177.02
175.53
173.68
171.57
169.01
165.66
161.09
154.93
147.05
137.53
126.56
114.37
101.16
87.17
72.78
58.49
44.79
31.84
19.31
6.33
-8.10
-24.65
-43.17
-62.66
-81.56
-98.28
-111.74
-121.60
-128.11
-131.93
-133.78
-134.36
-134.31
-134.09
-133.99
-133.97
-133.71
-132.71
-130.43
-126.56
-121.02
-114.03
-106.01
-97.49
-89.05
-81.14
-74.00
-67.60
-61.63
-55.77
-49.77
-43.63
-37.55
-31.76
-26.39
-21.38
-16.57
-11.80
-7.05
-2.43
1.84
5.51
8.34
10.17
10.93
10.62
9.40
7.58
5.48
3.45
1.68
0.16
-1.30
-2.98
-5.11
-7.77
-10.78
-13.86
-16.65
-18.97
-20.82
-22.44
-24.13
-26.10
-28.37
-30.70
-32.78
-34.36
-35.43
-36.19
-37.05
-38.40
-40.49
-43.34
-46.73
-50.30
-53.63
-56.35
-58.25
-59.28
-59.52
-59.13
-58.19
-56.61
-54.14
-50.43
-45.12
-37.85
-28.31
-16.36
-2.16
13.66
29.93
45.17
57.97
67.42
73.22
75.61
74.99
71.75
66.25
59.04
51.07
43.72
38.24
35.33
34.66
34.95
34.56
32.20
27.44
20.85
13.71
7.44
3.15
1.35
2.04
4.86
9.31
14.83
20.75
26.27
30.48
32.48
31.73
28.13
22.07
14.18
5.17
-4.41
-14.20
-23.89
-33.10
-41.47
-48.72
-54.74
-59.52
-62.88
-64.24
-62.63
-56.93
-46.56
-31.93
-14.65
2.87
18.16
29.44
36.10
38.66
38.34
36.51
34.28
32.32
31.00
30.51
30.92
32.16
33.90
35.57
36.48
36.07
34.10
30.77
26.58
22.16
18.02
14.47
11.62
9.42
7.83
6.79
6.26
6.16
6.32
6.48
6.35
5.65
4.21
2.06
-0.58
-3.34
-5.85
-7.89
-9.36
-10.39
-11.13
-11.75
-12.37
-13.07
-13.96
-15.16
-16.78
-18.88
-21.46
-24.45
-27.76
-31.20
-34.45
-37.04
-38.34
-37.76
-34.94
-29.89
-22.99
-14.82
-6.04
2.81
11.33
19.23
26.34
32.59
38.04
42.88
47.35
51.61
55.67
59.31
62.22
64.14
64.94
64.67
63.52
61.79
59.74
57.56
55.35
53.03
50.39
47.20
43.28
38.58
33.24
27.46
21.38
15.01
8.23
1.02
-6.38
-13.42
-19.26
-23.11
-24.54
-23.69
-21.21
-17.99
-14.83
-12.17
-10.21
-9.01
-8.73
-9.63
-11.90
-15.53
-20.28
-25.82
-31.96
-38.70
-46.06
-53.77
-61.01
-66.48
-68.85
-67.32
-61.93
-53.54
-43.26
-32.00
-20.16
-7.77
5.14
18.16
30.57
41.44
50.16
56.64
61.34
65.01
68.16
70.85
72.52
72.30
69.31
63.02
53.48
41.25
27.21
12.34
-2.49
-16.48
-28.85
-38.73
-45.20
-47.47
-45.18
-38.60
-28.79
-17.42
-6.39
2.65
8.69
11.57
11.78
10.21
7.73
5.08
2.66
0.61
-1.13
-2.64
-3.88
-4.61
-4.52
-3.43
-1.59
0.26
1.02
-0.48
-4.98
-12.68
-23.33
-36.32
-50.67
-64.89
-77.13
-85.53
-88.92
-87.40
-82.42
-76.19
-70.68
-66.82
-64.24
-61.71
-57.88
-51.98
-44.15
-35.31
-26.71
-19.38
-13.78
-9.61
-5.96
-1.63
4.39
12.56
22.65
33.90
45.15
54.97
61.92
64.92
63.69
58.90
51.88
43.98
35.88
27.32
17.54
6.19
-5.97
-17.09
-25.03
-28.35
-27.07
-22.51
-16.55
-10.72
-5.67
-1.29
2.93
7.33
11.90
16.27
20.00
22.66
24.03
24.00
22.62
19.96
16.10
11.21
5.51
-0.70
-7.05
-13.10
-18.35
-22.38
-24.82
-25.51
-24.61
-22.55
-19.91
-17.21
-14.67
-12.17
-9.41
-6.07
-2.12
2.17
6.34
9.89
12.42
13.69
13.60
12.23
9.83
6.84
3.79
1.14
-0.85
-2.17
-3.00
-3.45
-3.44
-2.70
-0.88
2.16
6.28
11.05
15.94
20.50
24.44
27.66
30.20
32.14
33.57
34.56
35.20
35.57
35.73
35.67
35.26
34.34
32.83
30.79
28.53
26.48
25.02
24.34
24.32
24.66
25.06
25.39
25.73
26.39
27.74
30.06
33.45
37.66
42.06
45.59
46.98
45.07
39.24
29.71
17.52
4.23
-8.55
-19.61
-28.28
-34.44
-38.35
-40.42
-41.13
-40.89
-40.03
-38.77
-37.22
-35.34
-33.03
-30.06
-26.10
-20.80
-13.86
-5.17
5.20
16.87
29.28
41.63
52.88
61.85
67.46
69.16
67.12
62.25
55.87
49.24
43.06
37.44
32.06
26.57
20.78
14.80
8.92
3.46
-1.39
-5.81
-10.51
-16.88
-26.55
-40.48
-58.16
-77.35
-94.93
-108.38
-117.06
-122.31
-126.41
-130.93
-135.61
-138.55
-137.47
-131.06
-119.44
-103.26
-82.43
-55.44
-20.20
23.98
74.45
124.95
167.21
193.75
200.51
187.95
160.33
123.67
83.80
45.18
10.78
-17.29
-37.53
-49.03
-52.12
-48.63
-41.60
-34.35
-29.44
-27.81
-28.86
-31.01
-32.66
-32.85
-31.59
-29.59
-27.80
-26.88
-26.94
-27.64
-28.40
-28.66
-28.12
-26.75
-24.69
-22.13
-19.23
-16.15
-13.13
-10.49
-8.62
-7.78
-8.01
-9.09
-10.60
-12.12
-13.44
-14.57
-15.81
-17.43
-19.63
-22.29
-24.98
-27.03
-27.78
-26.77
-23.92
-19.58
-14.38
-9.06
-4.14
0.13
3.77
7.00
10.07
13.12
16.19
19.17
21.85
23.99
25.34
25.79
25.40
24.39
23.05
21.66
20.39
19.27
18.26
17.28
16.27
15.26
14.24
13.23
12.18
11.08
9.94
8.81
7.79
7.00
6.48
6.13
5.71
4.97
3.71
1.93
-0.22
-2.46
-4.56
-6.43
-8.17
-9.93
-11.93
-14.30
-17.11
-20.34
-23.86
-27.44
-30.68
-33.09
-34.16
-33.57
-31.24
-27.41
-22.56
-17.26
-12.05
-7.30
-3.17
0.36
3.41
6.11
8.54
10.71
12.56
14.09
15.25
16.08
16.57
16.71
16.47
15.85
14.91
13.85
12.89
12.22
11.90
11.86
11.88
11.75
11.30
10.49
9.36
7.97
6.41
4.74
3.06
1.44
-0.05
-1.42
-2.75
-4.19
-5.85
-7.78
-9.91
-12.12
-14.37
-16.71
-19.27
-22.22
-25.59
-29.18
-32.58
-35.24
-36.66
-36.50
-34.66
-31.31
-26.77
-21.43
-15.69
-9.91
-4.42
0.58
4.92
8.61
11.76
14.57
17.26
19.98
22.82
25.78
28.75
31.64
34.35
36.80
38.94
40.73
42.08
42.88
43.03
42.44
41.10
39.05
36.39
33.24
29.77
26.23
22.91
20.12
18.06
16.73
15.87
15.13
14.11
12.57
10.42
7.70
4.46
0.71
-3.51
-8.15
-13.02
-17.91
-22.69
-27.31
-31.90
-36.59
-41.42
-46.21
-50.53
-53.79
-55.39
-54.89
-52.18
-47.50
-41.43
-34.69
-27.96
-21.71
-16.06
-10.92
-6.08
-1.36
3.19
7.44
11.17
14.30
16.84
18.96
20.75
22.24
23.30
23.76
23.50
22.59
21.26
19.82
18.51
17.40
16.36
15.11
13.43
11.20
8.51
5.54
2.46
-0.66
-3.84
-7.16
-10.62
-14.13
-17.56
-20.77
-23.76
-26.64
-29.55
-32.61
-35.78
-38.92
-41.84
-44.41
-46.61
-48.50
-50.14
-51.52
-52.54
-52.97
-52.54
-51.01
-48.28
-44.44
-39.79
-34.73
-29.63
-24.71
-19.86
-14.72
-8.72
-1.42
7.35
17.24
27.50
37.14
45.23
51.20
54.94
56.82
57.61
58.22
59.39
61.50
64.36
67.25
69.25
69.51
67.65
63.80
58.54
52.52
46.32
40.19
34.26
28.61
23.33
18.46
13.84
9.06
3.57
-3.10
-11.09
-20.10
-29.52
-38.63
-46.85
-53.94
-59.98
-65.33
-70.35
-75.28
-80.07
-84.35
-87.52
-88.96
-88.30
-85.53
-81.07
-75.66
-70.13
-65.20
-61.32
-58.63
-56.97
-55.84
-54.56
-52.37
-48.67
-43.30
-36.62
-29.45
-22.70
-17.01
-12.49
-8.76
-5.20
-1.35
2.91
7.39
11.78
15.93
19.87
23.78
27.73
31.58
35.01
37.63
39.16
39.54
38.92
37.60
36.01
34.62
33.93
34.41
36.34
39.75
44.37
49.76
55.40
60.90
66.01
70.59
74.47
77.44
79.26
79.74
78.91
76.96
74.25
71.11
67.77
64.31
60.74
57.15
53.81
51.10
49.39
48.79
49.03
49.50
49.47
48.45
46.37
43.64
40.93
38.86
37.69
37.32
37.46
37.82
38.35
39.19
40.50
42.31
44.38
46.36
47.88
48.82
49.36
49.87
50.84
52.62
55.40
59.13
63.65
68.76
74.19
79.78
85.38
91.00
96.69
102.55
108.46
114.03
118.48
120.73
119.77
114.83
105.65
92.37
75.42
55.32
32.74
8.56
-16.06
-39.76
-61.33
-80.00
-95.67
-108.77
-120.01
-130.00
-139.10
-147.45
-155.00
-161.58
-166.84
-170.26
-171.17
-169.00
-163.53
-155.06
-144.40
-132.54
-120.50
-108.99
-98.44
-88.93
-80.29
-72.17
-64.21
-56.11
-47.88
-39.74
-32.08
-25.31
-19.63
-15.10
-11.61
-9.00
-7.13
-5.83
-4.90
-4.10
-3.25
-2.30
-1.38
-0.79
-0.76
-1.38
-2.52
-3.95
-5.42
-6.77
-7.96
-9.04
-10.05
-11.03
-12.01
-12.99
-13.98
-14.98
-15.99
-17.04
-18.13
-19.26
-20.36
-21.33
-22.07
-22.61
-23.07
-23.70
-24.68
-26.11
-27.86
-29.73
-31.47
-32.82
-33.62
-33.63
-32.63
-30.40
-26.84
-22.11
-16.61
-10.91
-5.54
-0.92
2.72
5.32
6.91
7.59
7.54
7.04
6.38
5.80
5.33
4.80
3.87
2.21
-0.37
-3.82
-7.85
-12.16
-16.46
-20.58
-24.45
-28.02
-31.21
-33.83
-35.62
-36.21
-35.13
-31.84
-25.89
-17.15
-5.95
6.80
19.84
31.88
42.08
50.23
56.66
61.99
66.68
70.81
74.07
76.04
76.43
75.28
72.86
69.44
65.07
59.57
52.73
44.53
35.41
26.21
17.89
11.20
6.33
2.87
0.03
-3.06
-7.01
-12.00
-17.88
-24.35
-31.19
-38.37
-45.99
-54.17
-62.80
-71.47
-79.53
-86.26
-91.10
-93.82
-94.47
-93.24
-90.21
-85.38
-78.67
-70.21
-60.41
-49.97
-39.62
-29.81
-20.53
-11.42
-2.05
7.69
17.56
26.97
35.28
42.05
47.17
50.80
53.13
54.29
54.24
52.92
50.30
46.57
42.02
37.04
31.95
26.91
21.91
16.91
11.98
7.35
3.47
0.82
-0.30
0.06
1.49
3.33
4.91
5.76
5.71
4.85
3.42
1.75
0.13
-1.19
-2.01
-2.20
-1.75
-0.78
0.48
1.74
2.80
3.67
4.58
5.91
8.09
11.41
15.90
21.33
27.28
33.37
39.41
45.41
51.53
57.85
64.19
70.10
75.00
78.43
80.25
80.57
79.66
77.71
74.74
70.76
65.92
60.69
55.72
51.66
48.89
47.35
46.56
45.78
44.30
41.59
37.54
32.44
26.99
22.07
18.43
16.56
16.46
17.70
19.69
21.85
23.78
25.37
26.69
27.92
29.24
30.71
32.22
33.42
33.77
32.73
29.99
25.64
20.22
14.49
9.10
4.31
-0.00
-4.18
-8.50
-13.02
-17.65
-22.34
-27.20
-32.56
-38.68
-45.54
-52.74
-59.55
-65.31
-69.59
-72.43
-74.17
-75.25
-75.92
-76.08
-75.33
-73.15
-69.23
-63.66
-57.04
-50.27
-44.13
-38.94
-34.46
-30.13
-25.62
-21.10
-17.28
-14.92
-14.41
-15.46
-17.29
-19.13
-20.57
-21.74
-23.00
-24.52
-26.00
-26.73
-25.98
-23.39
-19.19
-14.08
-8.96
-4.55
-1.19
1.11
2.62
3.60
4.29
4.79
5.16
5.53
6.10
7.10
8.69
10.82
13.24
15.51
17.13
17.75
17.26
15.81
13.77
11.55
9.42
7.42
5.44
3.32
1.01
-1.40
-3.70
-5.73
-7.45
-9.01
-10.63
-12.46
-14.51
-16.62
-18.60
-20.32
-21.85
-23.35
-24.96
-26.79
-28.81
-30.91
-32.98
-34.90
-36.58
-37.85
-38.54
-38.47
-37.59
-36.13
-34.62
-33.65
-33.58
-34.23
-34.80
-34.22
-31.60
-26.67
-19.86
-12.08
-4.21
3.24
10.32
17.39
24.84
32.81
41.11
49.37
57.24
64.49
71.07
77.06
82.53
87.49
91.82
95.29
97.60
98.63
98.47
97.42
95.86
94.15
92.52
91.14
90.22
89.98
90.45
91.19
91.27
89.46
84.85
77.39
67.99
58.21
49.57
42.86
37.94
33.89
29.57
24.14
17.31
9.33
0.73
-7.90
-16.10
-23.58
-30.33
-36.52
-42.41
-48.23
-53.96
-59.37
-64.09
-67.77
-70.19
-71.30
-71.10
-69.56
-66.72
-62.71
-57.90
-52.88
-48.30
-44.63
-41.95
-39.92
-37.97
-35.54
-32.33
-28.39
-24.05
-19.79
-16.06
-13.19
-11.29
-10.33
-10.06
-10.13
-10.16
-9.77
-8.72
-6.93
-4.45
-1.46
1.81
5.13
8.34
11.39
14.28
17.02
19.51
21.62
23.18
24.25
25.10
26.16
27.80
30.15
32.95
35.70
37.84
39.01
39.10
38.29
36.83
34.97
32.86
30.52
27.90
24.89
21.33
17.09
12.03
6.09
-0.67
-8.00
-15.55
-22.90
-29.67
-35.61
-40.65
-44.85
-48.33
-51.26
-53.79
-56.03
-58.05
-59.84
-61.25
-62.05
-61.97
-60.87
-58.71
-55.66
-51.96
-47.87
-43.61
-39.35
-35.16
-31.03
-26.86
-22.48
-17.71
-12.40
-6.56
-0.37
5.93
12.12
18.04
23.69
29.13
34.45
39.66
44.71
49.48
53.87
57.75
61.03
63.55
65.16
65.62
64.70
62.21
58.06
52.23
44.72
35.48
24.44
11.61
-2.73
-17.95
-33.19
-47.50
-60.13
-70.76
-79.46
-86.40
-91.63
-94.94
-95.96
-94.44
-90.51
-84.81
-78.24
-71.62
-65.42
-59.61
-53.86
-47.93
-41.86
-36.12
-31.22
-27.38
-24.23
-20.93
-16.60
-10.98
-4.60
1.36
5.76
8.12
8.94
9.19
9.60
10.17
10.45
10.16
9.82
10.50
13.08
17.22
21.11
22.13
18.27
9.26
-3.23
-16.57
-28.43
-37.78
-44.78
-50.14
-54.25
-56.90
-57.60
-56.18
-53.09
-49.38
-46.23
-44.53
-44.53
-45.92
-47.96
-49.84
-50.77
-50.19
-47.69
-43.05
-36.32
-27.83
-18.25
-8.50
0.50
8.05
13.87
18.17
21.50
24.62
28.30
33.15
39.51
47.16
55.23
62.39
67.29
69.24
68.61
66.72
65.25
65.41
67.38
70.28
72.74
73.56
72.28
69.20
65.03
60.42
55.61
50.54
44.99
38.90
32.42
25.82
19.42
13.34
7.53
1.68
-4.73
-12.16
-20.93
-30.94
-41.74
-52.53
-62.45
-70.93
-77.76
-83.31
-88.20
-93.07
-98.23
-103.49
-108.14
-111.15
-111.45
-108.27
-101.28
-90.65
-76.99
-61.24
-44.59
-28.41
-14.11
-2.75
5.19
10.06
12.93
15.15
17.84
21.57
26.23
31.32
36.24
40.51
43.92
46.34
47.82
48.46
48.57
48.64
49.34
51.33
55.12
60.81
67.96
75.57
82.34
87.09
89.10
88.44
85.78
82.03
77.85
73.34
68.16
61.90
54.48
46.40
38.54
31.67
26.11
21.55
17.37
13.04
8.42
3.89
-0.07
-3.18
-5.67
-8.21
-11.63
-16.44
-22.47
-28.82
-34.19
-37.33
-37.38
-34.18
-28.19
-20.27
-11.41
-2.45
6.05
13.85
20.91
27.27
32.97
37.99
42.28
45.81
48.63
50.84
52.56
53.87
54.77
55.14
54.86
53.81
52.04
49.72
47.19
44.82
42.90
41.57
40.73
40.10
39.30
38.01
36.04
33.38
30.16
26.57
22.76
18.81
14.69
10.32
5.58
0.39
-5.27
-11.40
-17.87
-24.59
-31.38
-38.08
-44.48
-50.34
-55.38
-59.35
-62.19
-64.01
-65.18
-66.16
-67.28
-68.61
-69.83
-70.28
-69.25
-66.19
-60.93
-53.76
-45.34
-36.41
-27.63
-19.33
-11.61
-4.36
2.51
8.98
14.89
20.06
24.33
27.62
29.94
31.33
31.84
31.54
30.53
28.98
27.04
24.89
22.58
20.15
17.56
14.77
11.76
8.57
5.27
2.02
-1.04
-3.78
-6.16
-8.25
-10.17
-12.04
-13.96
-16.00
-18.27
-20.93
-24.15
-27.99
-32.23
-36.47
-40.23
-43.24
-45.59
-47.83
-50.61
-54.39
-59.12
-64.14
-68.40
-70.97
-71.39
-69.82
-66.86
-63.07
-58.70
-53.74
-48.22
-42.44
-36.64
-30.40
-22.26
-10.09
7.77
30.93
56.23
78.50
92.64
96.21
91.04
82.95
79.48
86.86
107.36
138.48
173.89
205.81
227.44
234.79
226.95
205.33
172.96
134.17
94.97
62.73
44.30
42.90
55.54
73.36
85.29
83.43
67.30
43.87
23.42
13.56
15.21
22.70
27.74
24.30
11.09
-9.16
-32.28
-54.84
-74.74
-90.89
-102.97
-111.45
-117.88
-124.11
-131.17
-138.48
-144.33
-147.69
-149.59
-153.10
-161.20
-174.12
-187.89
-195.46
-190.17
-169.08
-134.34
-91.84
-48.22
-8.13
26.50
55.60
79.49
97.84
109.72
114.47
112.58
105.84
96.88
88.15
81.06
75.52
70.26
63.65
54.64
43.27
30.48
17.60
5.65
-5.05
-15.00
-25.25
-36.98
-51.19
-68.55
-89.23
-112.73
-137.56
-161.06
-179.74
-190.28
-190.92
-182.42
-168.07
-152.39
-139.14
-129.71
-122.72
-115.21
-104.74
-91.11
-76.62
-64.79
-58.20
-57.00
-58.67
-59.32
-55.57
-45.73
-30.15
-10.37
11.92
35.52
59.72
83.84
106.73
126.78
142.36
152.38
156.79
156.54
153.27
148.75
144.38
140.94
138.53
136.77
135.05
132.79
129.62
125.47
120.49
114.93
109.05
102.92
96.49
89.51
81.77
73.25
64.18
55.11
46.78
39.91
35.04
32.38
31.76
32.58
33.87
34.32
32.48
27.04
17.25
3.22
-13.90
-32.15
-49.30
-63.38
-73.27
-78.79
-80.59
-79.70
-77.17
-73.85
-70.39
-67.29
-64.93
-63.53
-63.00
-62.89
-62.56
-61.41
-59.20
-56.12
-52.71
-49.62
-47.25
-45.67
-44.64
-43.79
-42.82
-41.66
-40.36
-39.01
-37.57
-35.85
-33.57
-30.45
-26.42
-21.67
-16.61
-11.76
-7.48
-3.90
-0.81
2.12
5.10
8.06
10.62
12.35
12.91
12.20
10.30
7.36
3.63
-0.50
-4.32
-6.94
-7.53
-5.71
-1.76
3.60
9.63
15.96
22.67
29.96
37.70
45.16
51.28
55.16
56.46
55.44
52.57
48.20
42.59
36.19
30.07
25.76
24.69
27.38
32.92
39.27
44.16
46.09
44.71
40.58
34.48
26.88
18.26
9.63
2.77
-0.39
1.12
6.31
12.39
16.07
15.34
10.43
3.62
-2.36
-5.93
-7.36
-8.29
-10.32
-13.90
-18.11
-21.51
-23.22
-23.59
-23.92
-25.62
-29.36
-34.68
-40.27
-44.61
-46.59
-45.91
-42.99
-38.69
-33.84
-29.02
-24.42
-19.95
-15.46
-10.98
-6.66
-2.85
0.23
2.51
4.16
5.48
6.76
8.12
9.42
10.34
10.58
10.02
8.82
7.40
6.25
5.72
5.90
6.58
7.39
8.02
8.35
8.45
8.53
8.72
9.02
9.26
9.23
8.85
8.20
7.50
6.94
6.60
6.34
5.85
4.80
3.05
0.69
-1.91
-4.33
-6.22
-7.46
-8.19
-8.67
-9.25
-10.23
-11.86
-14.33
-17.74
-21.99
-26.70
-31.26
-34.91
-36.99
-37.21
-35.73
-33.06
-29.86
-26.70
-23.90
-21.51
-19.41
-17.43
-15.44
-13.41
-11.34
-9.35
-7.59
-6.22
-5.35
-5.05
-5.27
-5.92
-6.84
-7.87
-8.86
-9.60
-9.86
-9.37
-7.80
-4.86
-0.42
5.36
11.99
18.72
24.81
29.78
33.47
36.00
37.55
38.16
37.64
35.71
32.21
27.28
21.36
15.01
8.59
2.17
-4.51
-11.78
-19.78
-28.37
-37.09
-45.31
-52.44
-58.06
-61.98
-64.19
-64.84
-64.16
-62.47
-60.15
-57.60
-55.16
-53.08
-51.40
-50.02
-48.60
-46.75
-44.14
-40.60
-36.17
-31.13
-25.80
-20.43
-15.09
-9.67
-3.98
2.08
8.55
15.35
22.37
29.49
36.48
42.94
48.34
52.17
54.13
54.38
53.47
52.13
50.95
50.15
49.55
48.77
47.42
45.36
42.62
39.38
35.79
31.98
28.09
24.23
20.52
16.97
13.52
10.07
6.69
3.70
1.69
1.31
3.02
6.79
12.05
17.83
23.08
26.99
29.27
30.15
30.30
30.55
31.61
33.84
37.17
41.14
45.09
48.45
50.81
52.09
52.36
51.81
50.59
48.89
46.95
45.14
43.93
43.70
44.58
46.24
47.93
48.73
47.85
44.93
40.15
34.15
27.70
21.41
15.59
10.17
4.95
-0.29
-5.55
-10.66
-15.37
-19.53
-23.15
-26.52
-30.04
-34.13
-39.02
-44.65
-50.69
-56.53
-61.46
-64.82
-66.17
-65.40
-62.69
-58.42
-53.07
-47.10
-40.88
-34.76
-29.05
-24.04
-19.97
-16.92
-14.76
-13.18
-11.81
-10.37
-8.78
-7.11
-5.49
-4.02
-2.67
-1.41
-0.22
0.79
1.43
1.52
0.97
-0.12
-1.50
-2.86
-3.94
-4.56
-4.69
-4.37
-3.72
-2.91
-2.18
-1.83
-2.11
-3.17
-4.94
-7.14
-9.31
-11.06
-12.13
-12.52
-12.43
-12.05
-11.56
-10.98
-10.30
-9.49
-8.67
-7.99
-7.58
-7.52
-7.74
-8.07
-8.29
-8.11
-7.27
-5.51
-2.65
1.37
6.38
12.13
18.20
24.19
29.71
34.47
38.28
41.06
42.87
43.83
44.15
44.05
43.67
43.12
42.46
41.77
41.14
40.55
39.90
38.95
37.32
34.67
30.77
25.58
19.21
11.90
3.85
-4.68
-13.52
-22.45
-31.21
-39.56
-47.34
-54.62
-61.67
-68.98
-76.97
-85.79
-95.11
-104.09
-111.54
-116.28
-117.55
-115.15
-109.41
-101.00
-90.61
-78.98
-66.88
-55.27
-45.19
-37.33
-31.57
-26.82
-21.47
-14.18
-4.56
6.74
18.59
30.18
41.51
53.25
66.01
79.67
93.24
105.37
115.05
122.15
127.32
131.43
134.93
137.58
138.66
137.50
133.86
128.07
120.87
112.95
104.71
96.03
86.54
75.94
64.38
52.40
40.72
29.70
19.12
8.37
-3.13
-15.37
-27.58
-38.52
-47.06
-52.49
-54.67
-53.77
-49.99
-43.56
-34.99
-25.30
-15.93
-8.24
-2.84
0.82
4.18
8.98
16.38
26.46
38.26
50.12
60.30
67.49
71.13
71.60
70.12
68.18
66.90
66.28
65.17
61.80
54.70
43.67
29.84
14.87
-0.25
-15.70
-32.35
-50.46
-68.82
-84.98
-96.71
-103.43
-106.65
-108.92
-112.01
-115.72
-117.98
-116.69
-111.74
-105.61
-102.28
-105.13
-115.09
-130.54
-148.52
-166.05
-181.67
-195.77
-209.84
-225.29
-242.86
-262.07
-281.86
-300.96
-317.00
-327.33
-330.06
-324.84
-312.88
-296.77
-278.54
-259.22
-238.32
-212.68
-178.92
-135.94
-85.80
-32.18
21.21
73.47
124.91
175.35
224.50
270.30
309.09
337.59
355.24
364.05
368.86
373.37
368.02
344.60
302.74
251.27
201.11
163.91
136.74
115.82
98.35
83.00
69.35
58.88
52.19
48.18
44.88
39.78
32.36
22.64
10.88
-1.07
-10.94
-17.61
-21.47
-23.73
-26.12
-28.96
-32.23
-35.89
-39.04
-40.67
-40.49
-39.10
-37.33
-36.00
-34.88
-33.45
-31.35
-28.01
-22.88
-15.85
-7.18
2.65
12.96
23.34
33.38
42.74
51.51
60.23
69.42
79.30
89.52
99.13
107.10
112.62
115.41
115.79
114.43
111.90
108.40
103.78
97.82
90.43
81.78
72.11
61.61
50.30
38.15
25.29
12.12
-0.83
-13.03
-24.26
-34.61
-44.34
-53.69
-62.63
-70.90
-78.11
-83.93
-88.25
-91.25
-93.35
-94.99
-96.46
-97.78
-98.53
-98.04
-95.59
-90.67
-83.22
-73.55
-62.24
-49.93
-37.11
-24.09
-10.99
2.14
15.21
28.12
40.67
52.64
63.80
73.96
82.99
90.87
97.74
103.86
109.50
114.85
119.91
124.51
128.38
131.31
133.34
134.73
135.97
137.57
139.87
142.89
146.33
149.50
151.38
150.79
146.56
137.76
123.89
105.01
81.71
55.02
26.11
-3.82
-33.74
-62.76
-90.10
-115.07
-137.05
-155.52
-170.05
-180.26
-185.90
-186.95
-183.80
-177.42
-169.29
-161.25
-154.97
-151.52
-151.03
-152.77
-155.54
-158.22
-159.99
-160.46
-159.41
-156.62
-151.80
-144.78
-135.75
-125.32
-114.42
-103.92
-94.30
-85.51
-77.03
-68.31
-59.02
-49.28
-39.55
-30.36
-22.07
-14.59
-7.50
-0.21
7.76
16.50
25.73
34.82
43.17
50.39
56.45
61.55
65.88
69.40
71.80
72.61
71.43
68.21
63.24
57.09
50.33
43.37
36.42
29.50
22.59
15.67
8.73
1.77
-5.16
-11.92
-18.17
-23.43
-27.17
-28.94
-28.59
-26.32
-22.68
-18.39
-14.17
-10.55
-7.74
-5.66
-4.07
-2.62
-1.09
0.53
2.14
3.53
4.49
4.96
4.92
4.42
3.44
1.99
0.12
-2.00
-4.00
-5.38
-5.74
-4.88
-2.90
-0.12
3.08
6.45
9.89
13.41
16.93
20.28
23.15
25.23
26.34
26.48
25.61
23.68
20.52
15.96
9.98
2.85
-4.99
-13.01
-20.87
-28.49
-36.04
-43.79
-51.87
-60.22
-68.47
-76.12
-82.59
-87.31
-89.93
-90.34
-88.78
-85.85
-82.45
-79.57
-78.09
-78.39
-80.08
-81.95
-82.25
-79.22
-71.69
-59.51
-43.68
-25.95
-8.20
8.21
22.88
36.40
49.84
64.32
80.45
98.21
117.04
136.05
154.33
171.00
185.32
196.62
204.34
208.19
208.31
205.28
199.90
193.01
185.13
176.43
166.71
155.79
143.71
130.93
118.15
105.99
94.52
83.24
71.32
58.02
43.21
27.35
11.29
-4.23
-18.86
-32.57
-45.36
-56.90
-66.31
-72.49
-74.50
-72.07
-65.79
-56.90
-46.97
-37.31
-28.66
-21.07
-14.07
-7.05
0.26
7.61
14.21
19.09
21.53
21.38
19.13
15.54
11.17
6.03
-0.49
-9.17
-20.51
-34.31
-49.59
-64.95
-78.83
-89.91
-97.17
-100.00
-98.28
-92.53
-83.92
-74.17
-65.12
-58.17
-53.91
-52.02
-51.50
-51.30
-50.72
-49.63
-48.30
-46.96
-45.51
-43.51
-40.32
-35.66
-29.86
-23.88
-18.83
-15.44
-13.70
-12.87
-11.88
-9.90
-6.56
-1.93
3.68
10.02
17.03
24.75
33.25
42.44
51.92
60.93
68.40
73.23
74.64
72.54
67.64
61.25
54.80
49.32
45.05
41.53
37.99
33.82
28.88
23.55
18.47
14.21
11.01
8.76
7.12
5.80
4.63
3.64
2.92
2.46
2.08
1.55
0.60
-0.85
-2.68
-4.57
-6.21
-7.38
-8.09
-8.54
-9.07
-10.02
-11.57
-13.73
-16.33
-19.14
-22.03
-24.99
-28.15
-31.67
-35.53
-39.46
-42.89
-45.19
-45.89
-44.88
-42.44
-39.07
-35.28
-31.41
-27.55
-23.60
-19.51
-15.36
-11.29
-7.46
-3.95
-0.69
2.46
5.60
8.70
11.56
13.89
15.43
16.06
15.89
15.26
14.60
14.27
14.44
15.06
15.98
17.00
17.97
18.80
19.43
19.75
19.63
19.02
17.91
16.43
14.73
12.93
11.15
9.47
7.94
6.68
5.72
5.01
4.34
3.36
1.66
-1.06
-4.90
-9.62
-14.73
-19.51
-23.32
-25.71
-26.58
-26.12
-24.70
-22.60
-19.99
-16.85
-13.11
-8.74
-3.86
1.31
6.53
11.67
16.77
22.02
27.63
33.71
40.15
46.66
52.89
58.51
63.28
67.00
69.50
70.68
70.73
70.36
70.90
73.86
80.23
89.80
100.93
111.20
118.43
121.54
120.89
117.68
113.07
107.56
100.77
91.98
80.69
67.12
52.19
37.13
23.13
11.05
1.37
-5.82
-10.69
-13.65
-15.27
-16.25
-17.32
-19.22
-22.60
-27.86
-35.01
-43.62
-52.92
-62.05
-70.31
-77.40
-83.35
-88.49
-93.24
-97.95
-102.77
-107.61
-112.09
-115.71
-117.98
-118.65
-117.80
-115.71
-112.75
-109.13
-104.95
-100.19
-94.91
-89.33
-83.77
-78.47
-73.45
-68.46
-63.12
-57.10
-50.37
-43.26
-36.37
-30.36
-25.68
-22.51
-20.64
-19.71
-19.23
-18.79
-18.10
-17.09
-15.91
-15.00
-14.93
-16.19
-18.92
-22.85
-27.33
-31.67
-35.36
-38.10
-39.67
-39.70
-37.66
-33.20
-26.43
-17.97
-8.55
1.36
11.75
22.69
33.75
43.67
50.60
53.09
50.98
45.86
40.38
37.05
36.98
39.45
42.50
44.07
43.09
39.79
35.26
30.66
26.61
23.05
19.55
15.85
12.28
9.63
8.72
9.95
12.97
16.80
20.20
22.17
22.30
20.82
18.39
15.71
13.25
11.09
8.97
6.52
3.46
-0.32
-4.69
-9.44
-14.38
-19.43
-24.56
-29.71
-34.71
-39.22
-42.84
-45.14
-45.79
-44.65
-41.73
-37.30
-31.71
-25.42
-18.94
-12.69
-7.00
-2.14
1.67
4.23
5.49
5.58
4.94
4.15
3.89
4.65
6.59
9.60
13.36
17.52
21.81
26.03
30.07
33.81
37.21
40.20
42.77
44.86
46.32
46.88
46.22
44.21
40.96
36.86
32.44
28.14
24.18
20.48
16.78
12.78
8.24
3.08
-2.75
-9.17
-16.02
-22.97
-29.45
-34.71
-38.04
-38.98
-37.52
-34.14
-29.60
-24.68
-19.94
-15.55
-11.37
-7.14
-2.64
2.14
7.05
11.88
16.43
20.59
24.29
27.45
29.99
31.78
32.82
33.17
33.03
32.60
32.03
31.42
30.72
29.82
28.61
27.02
25.04
22.75
20.34
18.06
16.16
14.80
13.94
13.33
12.61
11.43
9.54
6.88
3.49
-0.51
-4.97
-9.74
-14.54
-19.10
-23.14
-26.54
-29.42
-32.12
-35.06
-38.49
-42.31
-46.09
-49.13
-50.74
-50.38
-47.89
-43.42
-37.37
-30.25
-22.50
-14.50
-6.54
1.12
8.19
14.31
19.16
22.58
24.65
25.71
26.26
26.76
27.33
27.77
27.59
26.27
23.58
19.76
15.53
11.84
9.47
8.72
9.21
10.11
10.39
9.32
6.70
2.76
-1.93
-6.83
-11.48
-15.44
-18.17
-19.01
-17.41
-13.28
-7.26
-0.49
6.04
12.18
18.82
27.38
38.66
52.03
65.36
75.84
81.35
81.49
77.62
72.03
66.62
62.05
57.71
52.46
45.56
37.25
28.57
20.73
14.45
9.66
5.77
2.20
-1.20
-4.00
-5.73
-6.44
-7.10
-9.43
-15.19
-25.37
-39.55
-56.04
-72.53
-86.92
-98.01
-105.63
-110.66
-114.79
-120.18
-128.65
-140.60
-154.01
-164.59
-167.44
-159.74
-142.53
-120.32
-98.26
-78.72
-59.88
-37.51
-9.14
22.69
50.67
66.82
67.87
57.87
46.21
42.20
49.86
66.37
84.78
98.83
106.41
109.74
112.68
117.59
124.02
129.43
131.20
128.25
121.35
112.26
102.83
94.45
88.06
84.04
82.09
80.93
78.52
72.73
62.41
48.06
31.68
15.79
2.16
-9.12
-19.51
-31.00
-44.57
-59.37
-72.91
-82.45
-86.59
-86.09
-83.29
-80.68
-79.52
-79.27
-78.16
-74.49
-67.62
-58.38
-48.52
-39.82
-33.37
-29.30
-27.05
-25.91
-25.28
-24.75
-23.92
-22.38
-19.67
-15.43
-9.58
-2.46
5.15
12.16
17.36
19.65
18.24
12.93
4.39
-5.79
-15.34
-22.12
-24.86
-23.74
-20.14
-15.85
-12.05
-8.78
-5.20
-0.45
5.60
12.15
17.99
22.37
25.53
28.60
32.92
39.24
47.29
55.92
63.64
69.16
71.72
71.30
68.42
63.98
58.88
53.67
48.40
42.58
35.54
26.89
16.80
6.07
-4.35
-13.74
-21.93
-29.14
-35.58
-41.13
-45.34
-47.82
-48.64
-48.53
-48.59
-49.61
-51.71
-54.17
-55.80
-55.58
-53.01
-48.23
-41.84
-34.52
-26.93
-19.58
-12.79
-6.67
-1.14
4.04
9.02
13.69
17.60
20.19
20.99
19.97
17.49
14.13
10.45
6.81
3.42
0.37
-2.23
-4.34
-6.00
-7.43
-8.89
-10.54
-12.29
-13.91
-15.18
-16.14
-17.09
-18.43
-20.39
-22.78
-24.99
-26.29
-26.19
-24.79
-22.74
-20.91
-19.88
-19.61
-19.50
-18.77
-16.85
-13.55
-8.91
-2.94
4.43
13.16
22.82
32.33
40.34
45.74
48.26
48.62
48.14
48.08
49.05
50.85
52.74
53.94
54.06
53.23
51.96
50.74
49.89
49.39
48.98
48.31
47.15
45.42
43.07
40.05
36.15
31.09
24.71
17.17
8.97
0.86
-6.47
-12.65
-17.62
-21.59
-24.85
-27.59
-29.89
-31.74
-33.20
-34.33
-35.32
-36.31
-37.47
-38.94
-40.77
-42.89
-45.08
-47.02
-48.33
-48.80
-48.43
-47.47
-46.28
-45.08
-43.95
-42.81
-41.58
-40.33
-39.27
-38.60
-38.32
-38.17
-37.61
-36.13
-33.44
-29.54
-24.78
-19.62
-14.44
-9.45
-4.67
-0.01
4.54
8.93
12.95
16.38
19.05
20.97
22.22
22.99
23.43
23.60
23.41
22.75
21.56
19.86
17.84
15.74
13.77
12.00
10.38
8.62
6.36
3.26
-0.86
-5.79
-10.97
-15.57
-18.77
-20.11
-19.70
-18.28
-17.03
-17.13
-19.25
-23.29
-28.47
-33.66
-37.96
-41.11
-43.63
-46.54
-50.85
-57.02
-64.69
-72.75
-79.86
-84.95
-87.67
-88.43
-88.09
-87.44
-86.87
-86.26
-85.16
-82.84
-78.13
-69.31
-54.29
-31.48
-1.08
34.10
69.02
98.15
117.77
127.50
130.21
130.17
130.77
132.96
135.49
136.39
134.52
130.20
124.57
118.47
111.69
103.21
92.15
78.61
63.93
50.04
38.68
30.71
26.06
24.02
23.70
24.47
26.09
28.70
32.61
37.99
44.52
51.09
55.94
57.14
53.34
44.30
31.11
15.74
0.33
-13.59
-25.43
-35.39
-43.96
-51.45
-57.75
-62.35
-64.73
-64.67
-62.57
-59.22
-55.50
-51.88
-48.20
-43.80
-37.88
-30.10
-20.91
-11.50
-3.37
2.36
5.22
5.47
3.75
0.67
-3.49
-8.73
-15.06
-22.24
-29.65
-36.43
-41.79
-45.29
-47.01
-47.38
-46.78
-45.25
-42.34
-37.46
-30.37
-21.59
-12.36
-4.08
2.48
7.63
12.57
18.65
26.51
35.62
44.48
51.47
55.55
56.63
55.33
52.47
48.63
44.12
39.17
34.23
29.92
26.66
24.30
21.79
17.59
10.19
-1.00
-15.03
-29.50
-41.09
-46.89
-45.51
-37.87
-26.86
-16.26
-9.17
-6.81
-8.19
-10.92
-12.56
-11.93
-9.52
-6.86
-5.45
-5.71
-6.88
-7.66
-7.05
-4.88
-1.68
1.75
4.84
7.28
8.92
9.49
8.66
6.34
2.84
-1.13
-4.65
-7.02
-7.85
-7.05
-4.78
-1.36
2.62
6.31
8.76
9.27
7.71
4.65
1.23
-1.32
-2.05
-0.65
2.50
6.42
9.97
12.09
12.19
10.23
6.63
2.14
-2.35
-6.00
-8.10
-8.25
-6.44
-3.11
0.97
4.98
8.35
10.95
13.06
15.14
17.62
20.65
24.09
27.58
30.69
33.13
34.82
35.93
36.76
37.54
38.33
38.95
39.15
38.68
37.50
35.71
33.53
31.18
28.85
26.73
24.93
23.52
22.36
21.15
19.48
17.00
13.57
9.25
4.25
-1.19
-6.88
-12.59
-18.02
-22.87
-26.90
-30.06
-32.60
-34.91
-37.40
-40.30
-43.59
-47.03
-50.26
-52.91
-54.64
-55.19
-54.53
-52.80
-50.30
-47.37
-44.14
-40.36
-35.48
-28.89
-20.16
-9.32
3.07
16.22
29.27
41.67
53.15
63.62
72.98
80.91
86.99
90.82
92.32
91.83
89.86
86.86
82.94
77.88
71.39
63.37
53.92
43.15
30.94
16.91
0.81
-17.02
-35.37
-52.45
-66.57
-76.87
-83.72
-88.34
-92.10
-95.81
-99.45
-102.47
-104.31
-104.88
-104.57
-103.91
-103.17
-102.09
-100.09
-96.68
-91.86
-86.14
-80.36
-75.27
-71.13
-67.80
-64.93
-62.31
-59.92
-57.78
-55.63
-52.76
-48.17
-41.05
-31.27
-19.59
-7.48
3.39
11.70
16.74
18.63
18.16
16.57
15.31
15.62
18.19
22.87
28.63
33.93
37.42
38.63
38.28
38.02
39.70
44.46
52.22
61.79
71.39
79.38
84.75
87.23
87.04
84.64
80.47
74.95
68.55
61.82
55.40
49.91
45.81
43.31
42.30
42.40
43.01
43.49
43.24
41.80
38.83
34.29
28.58
22.65
17.75
14.84
13.85
13.21
10.44
3.36
-8.63
-24.13
-40.21
-53.75
-62.69
-66.70
-67.07
-65.47
-62.97
-59.63
-55.10
-49.44
-43.66
-39.60
-39.28
-44.55
-55.90
-71.93
-89.36
-103.88
-111.18
-107.93
-92.56
-65.79
-31.99
2.82
33.26
56.72
74.06
88.67
104.77
125.13
149.59
172.33
186.37
187.87
178.55
164.23
151.65
146.34
151.76
169.34
194.08
218.29
234.24
236.04
219.61
183.03
128.41
62.36
-5.79
-73.26
-142.24
-216.67
-298.83
-389.11
-486.89
-590.12
-694.89
-762.54
-760.72
-683.11
-555.78
-415.58
-288.07
-182.94
-98.98
-30.16
29.86
79.13
112.25
125.64
121.59
107.37
90.82
78.08
72.81
76.65
85.28
93.31
97.87
99.68
100.54
100.83
99.27
91.46
76.17
54.27
31.20
15.96
17.11
37.22
70.10
103.52
125.47
130.54
120.26
101.85
83.47
69.70
59.71
49.01
34.09
15.73
-0.78
-9.94
-9.50
-2.02
6.77
11.57
10.58
6.23
3.41
6.54
16.88
32.04
47.55
59.25
65.13
65.54
62.29
57.25
51.51
45.12
37.62
28.62
18.34
7.64
-2.22
-10.17
-15.77
-19.49
-22.45
-25.86
-30.42
-35.92
-41.48
-46.14
-49.49
-51.83
-53.96
-56.60
-59.93
-63.60
-67.01
-69.65
-71.03
-70.52
-67.18
-60.18
-49.50
-36.53
-23.81
-13.91
-8.08
-5.37
-3.01
2.00
11.20
23.79
37.23
48.70
56.75
61.77
65.36
68.95
72.76
75.79
76.73
75.05
71.51
67.86
65.82
66.12
68.12
70.24
70.85
69.30
66.27
63.57
63.25
66.64
73.65
82.89
92.26
99.95
105.11
107.90
109.19
109.95
110.70
111.38
111.54
110.76
108.80
105.68
101.57
96.62
90.94
84.65
77.95
71.14
64.57
58.63
53.65
49.82
47.10
45.23
43.63
41.57
38.39
33.76
27.84
21.28
14.87
9.12
3.89
-1.71
-8.89
-18.56
-30.78
-44.46
-57.71
-68.55
-75.62
-78.66
-78.30
-75.61
-71.63
-67.12
-62.78
-59.38
-57.70
-58.19
-60.44
-63.15
-64.55
-63.24
-58.96
-52.57
-45.57
-39.26
-34.23
-30.36
-27.33
-25.12
-24.22
-25.30
-28.68
-33.94
-40.01
-45.54
-49.22
-50.28
-48.61
-44.90
-40.47
-37.02
-36.09
-38.51
-44.29
-52.69
-62.50
-72.37
-81.05
-87.74
-92.26
-95.17
-97.61
-100.78
-105.31
-110.97
-116.60
-120.62
-121.62
-118.72
-111.69
-100.87
-87.21
-72.38
-58.62
-48.10
-42.15
-40.75
-42.62
-46.02
-49.67
-53.08
-56.15
-58.41
-58.66
-55.34
-47.36
-34.91
-19.35
-2.46
14.19
29.51
42.62
52.68
59.08
62.11
63.24
64.83
68.95
76.33
85.81
95.08
101.94
105.51
106.39
105.96
105.19
104.05
101.68
97.17
90.39
82.05
73.35
65.18
57.74
50.58
42.95
34.45
25.30
16.28
8.36
2.21
-2.04
-4.81
-6.85
-8.80
-10.95
-13.17
-15.04
-16.07
-15.95
-14.67
-12.53
-10.06
-7.85
-6.28
-5.45
-5.15
-4.95
-4.47
-3.50
-2.08
-0.44
1.18
2.64
3.99
5.40
7.00
8.83
10.85
13.05
15.41
18.04
20.96
24.05
27.03
29.57
31.40
32.52
33.15
33.63
34.23
34.95
35.67
36.10
36.09
35.65
34.95
34.27
33.92
34.11
34.98
36.46
38.33
40.18
41.51
41.81
40.80
38.50
35.24
31.68
28.61
26.84
26.96
29.07
32.53
36.06
38.10
37.40
33.56
27.14
19.27
11.03
3.03
-4.60
-11.76
-17.88
-21.78
-22.17
-18.44
-11.13
-1.77
7.84
16.39
23.51
29.44
34.55
38.78
41.67
42.62
41.43
38.49
34.59
30.51
26.58
22.67
18.35
13.28
7.53
1.56
-3.98
-8.59
-12.22
-15.32
-18.65
-22.90
-28.34
-34.55
-40.51
-44.82
-46.13
-43.54
-37.00
-27.41
-16.68
-7.61
-3.24
-5.86
-15.93
-31.46
-48.42
-62.22
-69.64
-70.17
-66.02
-60.56
-56.37
-53.83
-51.29
-46.64
-39.06
-29.84
-21.74
-17.32
-17.28
-20.14
-23.17
-24.01
-21.99
-18.24
-14.87
-13.60
-14.76
-17.21
-19.06
-18.71
-15.62
-10.47
-4.59
0.83
5.51
10.13
15.90
23.77
33.80
44.99
55.67
64.30
70.14
73.59
76.04
79.32
84.98
93.70
105.15
118.19
131.36
143.61
154.71
165.28
176.37
188.88
203.07
218.47
234.18
249.30
262.76
272.98
277.69
274.63
262.81
243.59
220.45
197.17
175.39
153.11
125.55
87.92
38.79
-18.26
-75.75
-125.68
-163.10
-187.69
-202.83
-212.89
-220.89
-227.81
-233.46
-237.84
-241.51
-244.80
-246.73
-244.64
-235.20
-216.48
-189.61
-158.90
-130.42
-109.66
-99.87
-101.54
-113.20
-132.38
-156.27
-181.47
-203.81
-218.58
-221.41
-209.28
-181.31
-139.03
-86.36
-29.54
23.53
64.63
87.68
91.29
79.80
61.91
46.76
39.72
40.10
42.38
40.07
29.90
13.75
-2.86
-14.29
-18.06
-15.82
-11.69
-9.52
-10.75
-14.09
-16.84
-16.81
-13.54
-8.34
-3.42
-0.75
-1.17
-4.15
-8.16
-11.41
-12.78
-12.24
-10.90
-10.34
-11.88
-16.05
-22.53
-30.58
-39.44
-48.62
-57.73
-66.27
-73.54
-78.80
-81.73
-82.66
-82.45
-82.05
-81.99
-82.32
-82.80
-83.32
-84.02
-85.17
-86.80
-88.47
-89.43
-88.98
-86.83
-83.23
-78.68
-73.65
-68.31
-62.60
-56.39
-49.67
-42.57
-35.32
-28.09
-21.07
-14.42
-8.33
-2.90
1.83
6.04
10.01
14.01
18.26
22.88
27.94
33.53
39.71
46.45
53.59
60.82
67.77
74.05
79.24
82.87
84.52
83.96
81.26
76.99
72.03
67.34
63.59
60.88
58.81
56.67
53.92
50.45
46.56
42.76
39.45
36.77
34.61
32.78
31.17
29.71
28.39
27.09
25.52
23.40
20.50
16.84
12.67
8.42
4.48
1.05
-1.92
-4.77
-7.99
-12.01
-17.05
-22.87
-28.77
-33.74
-36.75
-37.06
-34.52
-29.56
-23.07
-16.06
-9.45
-3.87
0.45
3.68
6.36
9.27
13.18
18.58
25.38
32.97
40.33
46.45
50.61
52.57
52.50
50.84
48.13
44.99
42.04
39.84
38.64
38.27
38.21
37.83
36.73
34.93
32.67
30.15
27.23
23.53
18.82
13.27
7.47
2.08
-2.61
-6.80
-10.88
-14.98
-18.65
-21.01
-21.36
-19.74
-16.97
-14.24
-12.40
-11.40
-10.36
-8.15
-4.08
1.69
8.18
14.13
18.47
20.67
20.73
19.03
16.19
12.86
9.59
6.77
4.52
2.68
0.87
-1.23
-3.68
-6.18
-8.14
-8.96
-8.29
-6.20
-3.13
0.25
3.26
5.29
5.97
5.16
3.02
-0.03
-3.58
-7.32
-11.15
-15.08
-19.09
-23.00
-26.51
-29.37
-31.56
-33.36
-35.15
-37.17
-39.30
-41.19
-42.47
-43.03
-43.24
-43.80
-45.38
-48.33
-52.33
-56.49
-59.59
-60.54
-58.77
-54.43
-48.18
-40.94
-33.45
-26.16
-19.22
-12.63
-6.43
-0.79
4.07
8.04
11.31
14.36
17.81
22.19
27.67
33.96
40.42
46.30
51.01
54.33
56.34
57.32
57.58
57.35
56.86
56.33
55.98
55.95
56.15
56.39
56.41
56.03
55.14
53.74
51.84
49.44
46.61
43.48
40.20
36.87
33.42
29.70
25.60
21.18
16.57
11.92
7.23
2.39
-2.73
-8.07
-13.31
-18.06
-22.07
-25.41
-28.47
-31.64
-35.04
-38.34
-40.90
-42.09
-41.66
-39.87
-37.40
-34.99
-33.00
-31.22
-28.84
-24.85
-18.61
-10.19
-0.49
9.16
17.57
24.17
29.16
33.18
36.74
39.90
42.18
42.97
41.98
39.48
36.19
32.95
30.36
28.55
27.41
26.68
26.25
26.09
26.19
26.43
26.59
26.37
25.51
23.96
21.78
19.15
16.32
13.52
10.98
8.89
7.46
6.88
7.31
8.77
11.06
13.73
16.20
17.87
18.27
17.18
14.70
11.10
6.74
1.93
-3.14
-8.33
-13.50
-18.37
-22.57
-25.67
-27.33
-27.42
-25.99
-23.26
-19.51
-15.02
-9.94
-4.45
1.29
7.02
12.31
16.62
19.40
20.38
19.75
18.18
16.56
15.48
14.84
13.83
11.28
6.20
-1.67
-11.95
-23.84
-36.64
-49.97
-63.70
-77.60
-91.05
-103.04
-112.49
-118.60
-121.11
-120.40
-117.17
-112.31
-106.67
-100.81
-94.99
-88.98
-82.16
-73.67
-62.77
-49.09
-32.83
-14.85
3.55
20.90
35.96
48.08
57.35
64.56
70.86
77.31
84.48
92.31
100.21
107.36
113.06
116.87
118.66
118.56
116.85
113.94
110.24
106.16
101.93
97.59
92.92
87.53
81.03
73.22
64.18
54.21
43.77
33.23
22.82
12.62
2.65
-7.06
-16.54
-25.95
-35.63
-46.03
-57.45
-69.80
-82.55
-94.80
-105.62
-114.37
-120.78
-124.87
-126.87
-127.04
-125.69
-123.30
-120.44
-117.76
-115.79
-114.70
-114.16
-113.37
-111.28
-106.94
-99.82
-90.02
-78.19
-65.30
-52.27
-39.67
-27.64
-16.03
-4.57
6.77
17.78
28.05
37.24
45.20
52.13
58.41
64.39
70.09
75.09
78.62
79.86
78.30
73.91
67.25
59.14
50.44
41.82
33.64
26.15
19.54
14.12
10.32
8.60
9.34
12.63
18.31
25.90
34.83
44.59
54.94
65.84
77.37
89.49
101.91
114.06
125.25
134.85
142.46
148.00
151.64
153.74
154.68
154.76
154.09
152.54
149.77
145.32
138.80
129.98
118.95
105.92
91.22
75.10
57.71
39.17
19.59
-0.81
-21.74
-42.77
-63.36
-82.77
-100.23
-114.99
-126.67
-135.44
-142.03
-147.36
-152.04
-156.02
-158.64
-159.01
-156.61
-151.66
-144.93
-137.26
-129.08
-120.29
-110.68
-100.39
-90.18
-81.05
-73.56
-67.32
-61.11
-53.48
-43.56
-31.60
-18.87
-7.13
2.12
8.18
11.28
12.46
13.15
14.62
17.50
21.73
26.69
31.59
35.75
38.53
39.32
37.37
32.13
23.85
14.09
5.65
1.54
3.22
9.52
16.74
20.32
17.08
6.68
-8.52
-25.00
-39.97
-52.41
-62.77
-71.80
-79.56
-85.16
-87.42
-85.78
-80.94
-74.48
-68.03
-62.50
-57.72
-52.91
-47.30
-40.65
-33.51
-26.93
-21.94
-19.14
-18.35
-18.72
-19.14
-18.70
-16.97
-14.12
-10.69
-7.18
-3.86
-0.66
2.67
6.39
10.59
15.06
19.39
23.04
25.59
26.91
27.24
26.89
25.98
24.22
21.07
16.26
10.18
3.98
-0.79
-2.94
-2.09
1.22
6.01
11.42
17.15
23.37
30.35
37.90
45.30
51.53
55.84
58.04
58.70
58.74
59.07
60.24
62.23
64.51
66.35
67.11
66.44
64.41
61.34
57.65
53.72
49.85
46.15
42.56
38.85
34.67
29.81
24.26
18.33
12.56
7.53
3.69
1.23
0.12
0.15
1.02
2.41
4.00
5.49
6.60
7.13
6.91
5.90
4.25
2.37
0.89
0.46
1.50
3.96
7.27
10.57
13.16
14.79
15.75
16.80
18.64
21.69
25.75
29.98
33.14
33.82
30.70
22.71
9.15
-10.17
-34.60
-62.45
-90.98
-116.83
-136.77
-148.71
-152.42
-149.71
-143.73
-137.81
-134.34
-134.14
-136.66
-140.71
-145.18
-149.36
-152.91
-155.33
-155.63
-152.29
-143.81
-129.72
-111.33
-91.59
-74.04
-61.22
-53.34
-48.19
-42.35
-33.06
-19.73
-4.11
10.74
22.31
29.79
34.23
37.46
40.83
44.62
48.26
51.20
53.65
56.63
61.35
68.48
77.64
87.56
96.60
103.45
107.58
109.31
109.55
109.26
109.02
108.69
107.57
104.77
99.63
92.06
82.57
72.07
61.45
51.35
42.01
33.35
25.07
16.74
7.89
-1.92
-12.71
-23.83
-33.87
-41.06
-43.93
-41.93
-35.64
-26.47
-15.99
-5.41
4.69
14.11
22.68
30.06
35.88
39.97
42.57
44.16
45.12
45.41
44.53
41.79
36.78
29.71
21.43
13.23
6.35
1.57
-0.94
-1.60
-1.02
0.21
1.85
3.90
6.43
9.39
12.52
15.44
17.91
19.82
21.28
22.43
23.30
23.83
23.93
23.62
23.07
22.57
22.44
22.84
23.80
25.26
27.15
29.43
32.01
34.80
37.58
40.05
41.92
43.01
43.28
42.81
41.74
40.07
37.61
33.92
28.60
21.47
12.78
3.25
-6.06
-14.13
-20.25
-24.27
-26.59
-27.92
-29.05
-30.50
-32.43
-34.70
-37.03
-39.31
-41.68
-44.56
-48.48
-53.68
-59.99
-66.66
-72.77
-77.58
-81.08
-84.07
-87.91
-93.98
-103.07
-114.88
-128.11
-140.74
-150.79
-157.00
-159.28
-158.72
-157.06
-155.81
-155.52
-155.42
-153.79
-148.76
-139.21
-125.26
-108.18
-90.03
-73.17
-60.08
-53.05
-53.61
-61.66
-74.82
-88.69
-98.10
-99.16
-90.94
-75.78
-58.00
-41.51
-27.87
-15.89
-2.93
13.05
31.97
51.67
69.42
83.61
94.81
105.24
117.37
132.22
148.72
164.23
175.87
181.93
182.59
179.57
175.15
171.11
168.08
165.57
162.43
157.64
150.88
142.64
134.07
126.33
120.11
115.36
111.38
107.21
102.13
95.97
89.10
82.23
76.00
70.73
66.41
62.78
59.52
56.35
53.00
49.06
43.89
36.74
27.02
14.72
0.49
-14.42
-28.68
-41.32
-52.10
-61.38
-69.72
-77.48
-84.49
-90.02
-93.04
-92.62
-88.21
-79.90
-68.31
-54.53
-39.74
-24.92
-10.66
2.87
15.76
28.08
39.77
50.49
59.78
67.12
71.99
74.03
72.99
68.90
62.23
53.95
45.47
38.35
33.89
32.69
34.43
37.90
41.40
43.23
42.21
38.10
31.64
24.33
17.95
13.90
12.78
14.11
16.60
18.71
19.30
18.20
16.21
14.73
15.13
18.09
23.44
30.28
37.50
44.33
50.63
56.99
64.49
74.35
87.55
104.32
123.78
143.91
161.86
174.78
180.86
180.20
174.94
168.39
163.89
163.40
166.73
171.54
174.02
170.14
156.82
132.91
99.55
60.08
19.10
-19.10
-51.98
-79.50
-103.31
-125.19
-145.50
-163.16
-176.29
-183.83
-186.87
-188.69
-193.06
-201.91
-213.91
-224.85
-230.74
-229.09
-219.96
-205.67
-189.93
-175.96
-164.99
-156.03
-146.87
-137.63
-129.39
-123.35
-119.94
-119.19
-120.51
-122.47
-122.94
-119.57
-113.67
-106.57
-98.20
-87.16
-72.88
-56.57
-40.76
-28.10
-20.62
-23.41
-39.58
-68.72
-107.27
-151.79
-200.42
-253.18
-311.09
-348.04
-345.75
-304.70
-242.15
-175.17
-113.06
-59.32
-16.10
15.73
37.13
46.54
49.18
51.23
57.56
69.09
84.23
99.67
112.88
122.31
128.03
130.17
131.42
134.51
140.17
148.84
160.00
173.03
185.96
197.87
208.28
217.75
226.92
224.38
206.08
177.58
161.61
158.88
164.05
164.57
155.15
136.33
113.73
96.95
92.69
100.72
111.97
116.72
107.79
84.71
52.67
20.01
-4.44
-16.87
-19.93
-21.69
-27.78
-40.13
-56.30
-72.52
-85.78
-94.34
-99.00
-102.22
-107.00
-113.09
-118.28
-119.49
-115.52
-107.89
-99.80
-95.09
-96.10
-102.52
-110.21
-113.40
-107.06
-89.27
-61.57
-27.69
7.99
41.95
71.76
96.09
113.79
123.69
124.81
117.17
102.32
83.14
62.94
44.45
29.04
16.60
6.15
-3.47
-12.79
-21.60
-29.20
-34.91
-38.47
-40.16
-40.65
-40.54
-40.15
-39.44
-38.17
-36.17
-33.53
-30.59
-27.80
-25.51
-23.85
-22.61
-21.44
-19.99
-18.19
-16.20
-14.47
-13.49
-13.50
-14.40
-15.72
-16.76
-16.82
-15.45
-12.46
-8.02
-2.44
3.82
10.31
16.67
22.73
28.57
34.45
40.66
47.32
54.25
60.99
67.01
71.92
75.58
78.25
80.37
82.49
85.17
88.95
94.05
99.93
104.94
106.37
101.09
86.80
63.02
31.51
-4.23
-40.15
-72.85
-100.26
-121.62
-136.86
-146.12
-149.57
-147.63
-141.32
-132.20
-121.97
-112.02
-103.11
-95.45
-89.04
-83.94
-80.38
-78.76
-79.29
-81.79
-85.62
-89.70
-92.62
-92.89
-89.19
-80.82
-67.84
-51.06
-31.71
-10.93
10.69
33.14
56.63
80.98
105.24
127.75
146.67
160.71
169.59
174.03
175.33
174.80
173.30
170.88
167.00
160.69
150.98
137.49
120.72
102.11
83.61
66.91
52.70
40.29
28.00
14.14
-1.99
-19.55
-36.48
-50.40
-59.73
-64.38
-65.76
-66.04
-67.20
-70.16
-74.40
-78.17
-79.21
-75.28
-64.83
-47.29
-23.32
4.81
32.80
54.45
63.06
53.88
26.61
-13.57
-57.44
-95.19
-120.26
-131.48
-132.35
-128.08
-122.51
-116.54
-108.85
-98.12
-84.60
-70.28
-57.43
-47.05
-38.09
-28.23
-15.42
0.75
18.76
35.81
49.04
56.74
58.82
56.64
52.21
47.31
42.90
38.95
34.77
29.59
23.19
16.03
9.13
3.63
0.23
-1.00
-0.72
0.14
0.71
0.56
-0.27
-1.43
-2.62
-3.74
-4.89
-6.28
-7.93
-9.64
-11.07
-11.94
-12.26
-12.36
-12.66
-13.44
-14.72
-16.21
-17.48
-18.09
-17.71
-16.23
-13.66
-10.28
-6.42
-2.50
1.14
4.31
6.90
8.94
10.41
11.26
11.47
11.10
10.40
9.71
9.33
9.38
9.79
10.33
10.87
11.38
11.96
12.77
13.87
15.21
16.64
17.93
18.86
19.21
18.81
17.60
15.63
13.19
10.68
8.57
7.24
6.85
7.33
8.39
9.66
10.76
11.46
11.75
11.85
12.14
13.06
14.87
17.48
20.48
23.17
24.88
25.16
24.06
21.94
19.35
16.69
14.09
11.50
8.84
6.14
3.58
1.36
-0.38
-1.65
-2.59
-3.33
-3.89
-4.21
-4.19
-3.78
-3.06
-2.26
-1.63
-1.40
-1.62
-2.26
-3.15
-4.12
-5.03
-5.81
-6.44
-6.92
-7.15
-7.04
-6.49
-5.50
-4.24
-2.99
-2.00
-1.43
-1.24
-1.27
-1.35
-1.39
-1.50
-1.83
-2.50
-3.45
-4.47
-5.29
-5.79
-6.05
-6.31
-6.83
-7.71
-8.89
-10.12
-11.28
-12.39
-13.63
-15.26
-17.41
-20.04
-22.93
-25.68
-27.92
-29.31
-29.59
-28.66
-26.60
-23.63
-20.13
-16.50
-13.09
-10.02
-7.19
-4.37
-1.36
1.90
5.30
8.53
11.32
13.42
14.77
15.45
15.55
15.21
14.44
13.19
11.57
9.80
8.23
7.19
6.84
7.07
7.56
8.02
8.28
8.38
8.50
8.75
9.04
9.02
8.29
6.61
4.05
0.95
-2.22
-5.12
-7.66
-9.88
-11.99
-14.17
-16.51
-19.07
-21.79
-24.55
-27.10
-29.04
-29.85
-29.14
-26.73
-22.80
-17.86
-12.48
-7.15
-2.09
2.63
7.04
11.08
14.58
17.35
19.32
20.59
21.42
22.11
22.87
23.74
24.54
24.99
24.84
23.88
22.17
19.92
17.61
15.72
14.61
14.32
14.59
14.91
14.94
14.53
13.86
13.23
12.87
12.77
12.70
12.36
11.56
10.35
8.97
7.78
7.17
7.46
8.89
11.49
14.90
18.14
19.63
17.52
10.25
-2.61
-19.86
-38.71
-55.39
-66.31
-69.17
-63.68
-51.36
-34.87
-16.95
0.38
16.20
30.30
42.82
53.71
62.60
69.15
73.46
76.14
78.11
80.13
82.45
84.74
86.29
86.38
84.68
81.42
77.23
72.72
68.16
63.35
57.84
51.03
42.30
31.38
18.61
4.77
-9.26
-22.84
-35.77
-48.24
-60.70
-74.14
-88.88
-103.82
-116.73
-125.32
-128.14
-124.92
-116.55
-104.78
-93.05
-84.23
-78.99
-75.75
-72.12
-66.14
-56.80
-44.36
-30.24
-18.59
-12.79
-12.85
-15.63
-17.55
-16.57
-12.62
-7.12
-2.25
-3.00
-13.26
-33.47
-60.99
-92.65
-125.79
-157.68
-185.18
-187.57
-154.08
-94.36
-31.65
16.21
44.43
57.14
61.61
64.11
66.23
66.06
61.19
52.20
42.75
36.56
35.14
37.77
42.19
47.27
49.35
46.00
38.01
28.66
20.93
15.91
13.00
10.77
7.86
2.11
-7.63
-20.40
-33.73
-45.33
-54.11
-60.02
-63.59
-65.68
-67.96
-71.86
-77.84
-85.28
-92.99
-99.61
-103.89
-105.12
-103.42
-100.15
-97.06
-95.45
-95.68
-97.30
-99.52
-101.71
-103.48
-104.52
-104.49
-103.00
-99.96
-95.93
-92.16
-90.04
-90.24
-92.14
-93.88
-93.06
-87.70
-77.03
-61.49
-42.34
-21.05
1.25
23.79
46.07
67.68
88.23
107.40
125.07
141.27
156.17
169.89
182.33
193.10
201.67
207.52
210.38
210.35
207.80
203.24
197.16
189.88
181.57
172.20
161.64
149.78
136.58
122.30
107.50
93.11
80.17
69.51
61.47
55.76
51.64
48.18
44.67
40.84
36.82
33.07
30.08
28.18
27.45
27.68
28.51
29.52
30.36
30.78
30.65
29.95
28.71
27.02
24.98
22.72
20.27
17.66
14.88
11.91
8.76
5.41
1.91
-1.78
-5.68
-9.77
-13.97
-18.10
-21.97
-25.47
-28.65
-31.59
-34.41
-37.04
-39.23
-40.69
-41.23
-40.94
-40.16
-39.42
-39.12
-39.41
-40.11
-40.91
-41.49
-41.73
-41.65
-41.26
-40.44
-38.86
-36.16
-32.10
-26.78
-20.63
-14.21
-7.98
-2.10
3.54
9.10
14.58
19.74
24.19
27.66
30.10
31.73
32.86
33.69
34.29
34.59
34.57
34.27
33.78
33.10
32.18
30.97
29.53
28.04
26.69
25.49
24.17
22.28
19.47
15.72
11.47
7.35
3.94
1.52
-0.09
-1.28
-2.41
-3.61
-4.70
-5.47
-5.80
-5.81
-5.79
-6.06
-6.73
-7.71
-8.76
-9.61
-10.13
-10.35
-10.39
-10.38
-10.48
-10.81
-11.60
-13.07
-15.37
-18.31
-21.41
-24.00
-25.45
-25.48
-24.23
-22.11
-19.60
-16.99
-14.29
-11.32
-7.95
-4.24
-0.46
3.08
6.15
8.72
10.84
12.55
13.78
14.38
14.22
13.30
11.88
10.36
9.14
8.50
8.47
8.88
9.42
9.82
9.86
9.49
8.83
8.03
7.30
6.74
6.34
5.95
5.43
4.73
3.93
3.20
2.65
2.24
1.76
0.99
-0.17
-1.57
-2.96
-4.10
-4.97
-5.77
-6.85
-8.57
-11.09
-14.36
-18.13
-21.97
-25.36
-27.76
-28.81
-28.36
-26.65
-24.14
-21.32
-18.56
-15.89
-13.21
-10.40
-7.42
-4.48
-1.78
0.48
2.25
3.61
4.67
5.53
6.21
6.70
7.04
7.32
7.64
8.10
8.73
9.57
10.63
11.92
13.39
14.82
15.94
16.48
16.35
15.69
14.74
13.76
12.83
11.80
10.43
8.52
6.03
3.05
-0.21
-3.59
-7.02
-10.44
-13.81
-17.16
-20.51
-23.89
-27.24
-30.34
-32.82
-34.20
-34.14
-32.46
-29.28
-24.97
-20.04
-15.04
-10.36
-6.25
-2.72
0.36
3.14
5.72
8.12
10.21
11.88
13.00
13.57
13.68
13.50
13.23
12.93
12.58
12.05
11.27
10.22
9.06
8.02
7.36
7.21
7.51
8.07
8.62
8.93
8.86
8.38
7.54
6.48
5.42
4.55
4.00
3.73
3.53
3.10
2.20
0.74
-1.26
-3.65
-6.28
-9.05
-11.90
-14.79
-17.72
-20.73
-23.82
-26.95
-29.94
-32.48
-34.20
-34.75
-33.95
-31.93
-29.02
-25.71
-22.41
-19.29
-16.35
-13.48
-10.52
-7.46
-4.39
-1.49
1.07
3.21
4.94
6.29
7.21
7.64
7.55
7.05
6.37
5.84
5.73
6.11
6.86
7.58
7.99
7.95
7.52
6.87
6.24
5.87
5.88
6.05
5.96
5.28
4.12
2.92
2.29
2.85
4.85
8.05
11.39
13.53
13.68
12.28
10.44
9.48
10.42
13.47
18.06
22.49
24.88
24.28
21.70
18.98
17.94
19.69
23.76
28.07
28.97
23.00
8.86
-11.22
-33.90
-56.52
-78.01
-99.39
-117.44
-127.00
-125.18
-115.54
-105.54
-103.45
-113.89
-134.57
-157.05
-170.04
-165.63
-143.53
-114.39
-85.32
-62.01
-45.45
-30.70
-10.94
18.12
54.92
92.95
124.59
146.11
158.28
160.50
156.26
149.54
142.91
136.48
128.80
118.58
106.34
93.33
81.16
72.00
66.63
64.20
62.52
59.07
52.38
43.10
32.84
23.43
16.43
11.63
7.24
0.75
-9.72
-24.37
-41.30
-57.71
-70.86
-78.77
-81.09
-78.79
-73.44
-66.41
-58.62
-50.56
-42.60
-35.09
-28.00
-21.10
-13.98
-6.22
2.25
11.13
19.84
27.72
34.41
40.01
44.98
49.99
55.65
62.30
69.76
77.21
83.31
86.63
86.06
81.20
72.42
60.55
46.59
31.34
15.32
-1.27
-18.54
-36.84
-56.50
-77.35
-98.38
-117.83
-133.65
-144.28
-149.18
-148.86
-144.35
-136.60
-126.17
-113.40
-98.77
-83.11
-67.40
-52.38
-38.16
-24.42
-10.87
2.21
13.97
23.40
29.99
34.09
36.70
38.89
41.17
43.27
44.40
43.87
41.59
38.35
35.55
34.65
36.62
41.65
49.16
58.22
67.91
77.48
86.36
94.11
100.38
105.13
108.66
111.48
113.87
115.24
113.87
107.41
93.93
72.99
46.10
16.22
-13.38
-40.24
-63.07
-81.52
-95.51
-105.01
-110.21
-111.98
-112.00
-112.31
-114.46
-118.74
-124.15
-128.90
-131.43
-130.92
-127.53
-122.02
-115.43
-108.84
-103.26
-99.59
-98.45
-99.95
-103.61
-108.51
-113.62
-118.16
-121.86
-124.72
-126.80
-127.80
-126.84
-122.54
-113.51
-98.79
-78.26
-52.81
-24.18
5.23
32.94
56.86
75.89
90.23
101.28
111.13
121.65
133.81
147.26
160.60
172.03
180.14
184.39
185.04
182.81
178.46
172.59
165.80
158.91
152.85
148.41
145.81
144.36
142.60
138.79
131.59
120.63
106.52
90.57
74.11
58.02
42.52
27.46
12.75
-1.34
-14.22
-25.28
-34.31
-41.69
-48.24
-54.77
-61.65
-68.56
-74.74
-79.33
-81.78
-81.96
-79.95
-75.81
-69.47
-60.86
-50.21
-38.15
-25.66
-13.60
-2.33
8.45
19.52
31.65
45.18
59.83
74.93
89.80
103.85
116.68
127.77
136.23
140.99
141.12
136.35
127.29
115.29
101.85
88.14
74.63
61.23
47.74
34.27
21.45
10.13
0.90
-6.35
-12.60
-19.41
-28.18
-39.44
-52.39
-65.10
-75.21
-80.96
-81.89
-79.01
-74.25
-69.60
-66.30
-64.66
-64.33
-64.87
-66.20
-68.69
-72.72
-78.24
-84.50
-90.18
-93.90
-94.81
-92.93
-89.10
-84.59
-80.50
-77.47
-75.55
-74.38
-73.45
-72.23
-70.34
-67.48
-63.58
-58.83
-53.71
-48.82
-44.78
-42.10
-41.12
-41.94
-44.34
-47.50
-50.12
-50.76
-48.55
-43.67
-37.31
-30.89
-25.23
-20.12
-14.65
-8.18
-1.09
5.19
9.04
9.77
8.23
6.51
6.74
10.02
15.89
22.89
29.49
34.77
38.64
41.45
43.45
44.52
44.40
42.99
40.92
39.65
41.14
47.07
57.97
72.82
89.22
104.28
115.68
122.38
124.63
123.32
119.29
112.92
104.08
92.60
78.56
62.38
44.63
25.82
6.40
-12.97
-31.26
-47.12
-59.17
-66.57
-69.42
-68.58
-65.39
-61.16
-56.75
-52.60
-48.78
-45.36
-42.38
-39.94
-37.99
-36.36
-34.77
-32.93
-30.75
-28.25
-25.60
-22.97
-20.48
-18.20
-16.22
-14.58
-13.32
-12.41
-11.68
-10.91
-9.84
-8.33
-6.34
-3.95
-1.37
1.17
3.43
5.13
6.04
5.94
4.69
2.28
-1.14
-5.24
-9.58
-13.74
-17.41
-20.46
-22.95
-25.08
-27.08
-29.20
-31.61
-34.36
-37.26
-39.96
-41.96
-42.76
-42.03
-39.74
-36.24
-32.10
-27.94
-24.21
-21.11
-18.53
-16.26
-14.16
-12.21
-10.54
-9.35
-8.71
-8.59
-8.86
-9.39
-10.12
-11.10
-12.40
-14.12
-16.20
-18.51
-20.91
-23.18
-25.02
-26.00
-25.64
-23.48
-19.30
-13.19
-5.55
2.87
11.19
18.58
24.47
28.74
31.75
34.13
36.39
38.67
40.58
41.47
40.84
38.70
35.68
32.89
31.33
31.58
33.60
36.86
40.76
44.78
48.57
51.77
53.94
54.46
52.84
49.00
43.43
37.18
31.50
27.37
25.19
24.72
25.31
26.28
27.22
28.04
28.80
29.51
30.11
30.40
30.24
29.62
28.64
27.37
25.73
23.52
20.42
16.26
11.02
4.99
-1.37
-7.57
-13.22
-18.11
-22.15
-25.38
-27.84
-29.54
-30.49
-30.66
-30.07
-28.80
-26.94
-24.66
-22.08
-19.30
-16.49
-13.83
-11.53
-9.77
-8.58
-7.86
-7.42
-7.18
-7.16
-7.52
-8.40
-9.89
-11.93
-14.43
-17.28
-20.40
-23.58
-26.42
-28.31
-28.65
-27.01
-23.43
-18.47
-12.91
-7.56
-2.96
0.72
3.59
5.94
8.09
10.32
12.81
15.62
18.60
21.47
23.86
25.44
26.01
25.63
24.58
23.29
22.18
21.54
21.47
21.84
22.42
22.84
22.79
22.05
20.51
18.22
15.27
11.76
7.71
3.19
-1.69
-6.78
-11.86
-16.83
-21.72
-26.78
-32.29
-38.38
-44.96
-51.70
-58.20
-64.19
-69.64
-74.78
-79.92
-85.31
-90.94
-96.45
-101.17
-104.31
-105.22
-103.54
-99.30
-92.84
-84.58
-74.91
-64.13
-52.53
-40.45
-28.40
-16.92
-6.47
2.80
10.99
18.41
25.47
32.40
39.24
45.68
51.32
55.69
58.55
59.99
60.45
60.63
61.23
62.74
65.21
68.24
71.17
73.44
74.78
75.41
75.84
76.61
78.05
80.09
82.41
84.60
86.37
87.59
88.25
88.35
87.85
86.68
84.65
81.57
77.34
72.06
66.07
59.78
53.66
48.17
43.66
40.17
37.41
34.87
32.04
28.45
23.73
17.84
11.32
5.13
0.22
-2.81
-4.02
-3.71
-2.51
-1.14
-0.01
1.34
3.54
6.60
9.60
10.90
9.93
6.89
2.71
-1.28
-2.60
0.60
8.29
18.40
27.41
33.72
36.75
36.52
33.49
30.07
28.63
29.78
31.81
31.06
26.63
18.68
8.09
-3.12
-9.64
-5.74
11.72
41.83
79.65
122.48
167.76
212.74
239.82
234.66
197.32
142.73
96.91
59.08
25.21
-8.26
-45.08
-85.69
-126.85
-163.57
-191.28
-207.25
-212.21
-206.02
-191.21
-172.97
-156.83
-144.76
-135.59
-127.27
-119.15
-113.49
-111.10
-112.32
-116.19
-119.88
-118.74
-109.26
-91.70
-70.49
-52.49
-41.62
-38.33
-39.94
-42.11
-40.60
-33.37
-21.24
-7.08
5.82
16.19
24.38
31.58
38.93
46.90
54.95
61.70
65.58
65.64
62.38
57.43
52.92
50.82
52.40
58.16
67.96
81.40
97.99
117.33
139.10
163.04
188.50
214.36
238.51
257.72
267.90
264.59
243.96
203.86
144.77
70.48
-12.17
-94.42
-167.72
-225.77
-265.81
-288.50
-296.55
-293.03
-280.37
-260.57
-236.13
-210.58
-188.05
-171.64
-162.13
-157.60
-154.69
-150.43
-143.70
-135.37
-127.32
-121.06
-117.30
-115.86
-116.22
-117.80
-119.80
-121.10
-120.24
-115.72
-106.44
-91.95
-72.44
-48.70
-22.40
3.72
25.79
39.56
41.85
31.90
11.88
-13.75
-39.64
-61.00
-74.56
-78.72
-73.44
-60.26
-42.20
-23.22
-7.19
4.13
12.37
22.12
38.53
64.00
95.75
125.97
144.79
144.62
125.07
94.28
65.75
52.16
59.21
83.13
113.12
137.35
148.05
145.13
134.91
125.80
123.83
130.93
146.23
168.24
195.34
222.97
243.68
248.49
230.44
188.01
127.12
59.69
-1.46
-47.90
-80.78
-107.18
-134.22
-164.17
-194.33
-220.26
-239.53
-254.06
-256.24
-242.45
-215.57
-184.04
-155.26
-132.94
-118.45
-111.84
-111.78
-114.75
-118.60
-122.59
-128.03
-136.14
-146.84
-158.72
-165.16
-160.16
-141.16
-112.94
-85.08
-67.58
-65.14
-75.30
-89.42
-96.00
-85.90
-55.73
-9.78
43.99
94.40
133.86
159.10
171.22
174.54
174.30
175.04
178.46
183.57
187.24
187.36
182.50
172.16
156.89
137.94
116.88
94.91
73.34
54.09
42.54
42.72
53.82
68.91
77.56
70.73
45.30
6.60
-33.13
-55.09
-45.15
-0.55
69.09
146.83
215.34
262.01
282.11
278.41
264.20
253.19
253.31
264.84
283.33
303.00
318.76
327.69
301.17
228.12
121.84
11.81
-78.76
-142.98
-184.90
-211.39
-225.18
-230.13
-223.56
-204.63
-177.32
-149.00
-125.62
-108.43
-97.47
-89.94
-83.79
-74.66
-61.08
-45.32
-31.79
-23.72
-21.58
-23.91
-28.44
-33.91
-37.47
-37.73
-35.40
-32.66
-31.33
-31.87
-33.65
-35.34
-36.07
-34.41
-30.13
-24.73
-20.74
-20.32
-24.16
-31.27
-39.36
-45.96
-48.69
-46.50
-40.02
-31.11
-22.05
-14.64
-9.82
-7.57
-7.26
-7.91
-8.60
-8.68
-7.92
-6.48
-4.74
-3.12
-1.91
-1.20
-0.85
-0.60
-0.22
0.45
1.45
2.78
4.41
6.32
8.42
10.57
12.63
14.54
16.37
18.33
20.63
23.28
26.08
28.65
30.59
31.64
31.73
30.86
28.98
25.92
21.52
15.79
9.10
2.13
-4.32
-9.57
-13.34
-15.80
-17.44
-18.74
-19.91
-20.81
-20.98
-19.99
-17.71
-14.41
-10.69
-7.22
-4.41
-2.30
-0.57
1.19
3.21
5.43
7.52
9.11
10.00
10.36
10.63
11.29
12.63
14.62
16.89
18.98
20.56
21.59
22.26
22.76
23.10
22.99
21.95
19.62
15.91
11.11
5.68
0.11
-5.37
-10.73
-16.10
-21.57
-27.14
-32.68
-38.06
-43.19
-48.04
-52.57
-56.64
-60.06
-62.64
-64.34
-65.26
-65.69
-65.86
-65.88
-65.62
-64.76
-62.87
-59.60
-54.76
-48.37
-40.60
-31.72
-22.07
-12.00
-1.89
7.94
17.23
25.78
33.47
40.11
45.47
49.36
51.71
52.61
52.37
51.33
49.81
47.95
45.78
43.24
40.34
37.19
33.96
30.74
27.49
24.06
20.29
16.14
11.71
7.25
3.04
-0.70
-3.82
-6.19
-7.78
-8.63
-8.89
-8.89
-9.02
-9.62
-10.80
-12.41
-14.11
-15.61
-16.83
-17.98
