1479982411.00
64.000000
-0.00
-0.00
-0.00
-0.00
-0.00
-0.00
-0.00
-0.00
-0.00
-0.00
0.00
0.01
0.01
-0.00
-0.03
-0.05
-0.05
0.00
0.13
0.36
0.66
1.01
1.37
1.72
2.06
2.40
2.79
3.24
3.80
4.42
5.06
5.66
6.20
6.68
7.15
7.68
8.31
9.14
10.09
11.04
11.88
12.56
13.14
13.76
14.65
15.96
17.91
20.32
22.90
25.38
27.58
29.57
31.68
34.32
37.81
42.54
48.15
54.10
59.83
64.97
69.58
74.14
79.34
85.71
93.76
103.00
112.62
121.73
129.77
136.75
143.30
150.75
157.77
166.64
177.95
191.79
206.97
220.57
228.25
225.36
208.53
176.87
132.76
80.05
23.07
-34.94
-92.44
-149.16
-205.23
-260.37
-313.74
-363.87
-409.83
-450.91
-486.50
-515.74
-537.23
-549.22
-549.96
-538.37
-514.21
-478.67
-433.88
-382.45
-327.02
-269.84
-212.63
-156.66
-102.95
-52.37
-5.90
35.58
71.43
101.35
125.50
144.38
158.69
169.15
176.37
180.75
182.57
182.07
179.51
175.23
169.65
163.18
156.15
148.81
141.30
133.69
126.02
118.33
110.69
103.16
95.80
88.68
81.83
75.25
68.95
62.95
57.25
51.86
46.78
42.03
37.59
33.45
29.61
26.07
22.81
19.83
17.11
14.67
12.48
10.54
8.83
7.35
6.07
4.97
4.05
3.27
2.62
2.09
1.65
1.30
1.01
0.79
0.61
0.48
0.37
0.29
0.22
0.18
0.14
0.11
0.09
0.08
0.07
0.06
0.05
0.05
0.04
0.04
0.04
0.03
0.03
0.03
0.03
0.03
0.03
0.03
0.02
0.02
0.02
0.02
0.02
0.02
0.02
0.02
0.02
0.02
0.02
0.02
0.02
0.02
0.02
0.01
0.01
0.01
0.01
0.01
0.01
0.01
0.01
0.01
0.01
0.01
0.02
0.02
0.03
0.05
0.07
0.09
0.11
0.14
0.17
0.21
0.25
0.29
0.33
0.37
0.42
0.46
0.51
0.56
0.60
0.66
0.72
0.78
0.85
0.93
1.01
1.10
1.21
1.32
1.45
1.60
1.76
1.94
2.14
2.38
2.64
2.93
3.22
3.52
3.81
4.10
4.42
4.78
5.22
5.73
6.31
6.92
7.54
8.15
8.76
9.39
10.09
10.87
11.77
12.73
13.72
14.70
15.62
16.49
17.34
18.19
19.05
19.83
20.32
20.30
19.53
17.86
15.30
12.01
8.25
4.24
0.18
-3.94
-8.21
-12.70
-17.41
-22.07
-26.27
-29.55
-31.59
-32.38
-32.29
-31.90
-31.82
-32.40
-33.58
-34.94
-35.89
-36.04
-35.29
-33.99
-32.72
-32.06
-32.51
-34.32
-37.55
-41.78
-45.93
-48.28
-46.85
-40.26
-28.50
-13.29
2.45
15.64
24.23
27.91
27.94
26.24
24.48
23.45
23.12
23.12
23.18
23.42
24.08
25.24
26.63
27.72
27.89
26.74
24.35
21.20
18.02
15.46
13.87
13.19
13.02
12.82
12.20
11.12
9.86
8.86
8.55
9.10
10.37
11.90
13.17
13.84
13.80
13.26
12.59
12.07
11.84
11.78
11.67
11.24
10.41
9.22
7.89
6.62
5.56
4.72
3.96
3.15
2.16
0.99
-0.29
-1.54
-2.66
-3.64
-4.52
-5.42
-6.40
-7.53
-8.82
-10.26
-11.84
-13.49
-15.15
-16.71
-18.11
-19.34
-20.48
-21.66
-23.04
-24.70
-26.60
-28.51
-30.07
-30.84
-30.45
-28.71
-25.70
-21.74
-17.24
-12.63
-8.20
-4.03
-0.08
3.70
7.31
10.62
13.46
15.66
17.12
17.91
18.19
18.19
18.18
18.32
18.64
19.09
19.55
19.93
20.17
20.33
20.44
20.49
20.39
20.02
19.29
18.23
17.02
15.90
15.07
14.55
14.21
13.82
13.14
12.10
10.77
9.31
7.89
6.62
5.47
4.33
3.11
1.77
0.40
-0.88
-1.96
-2.84
-3.65
-4.60
-5.88
-7.54
-9.51
-11.53
-13.36
-14.87
-16.10
-17.21
-18.46
-19.98
-21.76
-23.69
-25.62
-27.47
-29.19
-30.73
-31.97
-32.66
-32.47
-31.12
-28.50
-24.78
-20.30
-15.52
-10.83
-6.45
-2.43
1.26
4.64
7.61
10.00
11.67
12.61
12.97
13.06
13.15
13.37
13.67
13.87
13.80
13.43
12.87
12.37
12.18
12.37
12.86
13.41
13.77
13.76
13.39
12.79
12.17
11.66
11.28
10.97
10.61
10.15
9.57
8.95
8.37
7.87
7.40
6.90
6.27
5.48
4.55
3.56
2.55
1.58
0.61
-0.40
-1.53
-2.78
-4.16
-5.61
-7.06
-8.49
-9.88
-11.27
-12.74
-14.30
-15.93
-17.56
-19.12
-20.54
-21.89
-23.33
-25.07
-27.25
-29.83
-32.53
-34.85
-36.23
-36.27
-34.84
-32.14
-28.53
-24.38
-19.90
-15.18
-10.24
-5.23
-0.45
3.71
6.97
9.22
10.64
11.54
12.20
12.78
13.28
13.61
13.74
13.73
13.73
13.87
14.22
14.70
15.20
15.58
15.75
15.73
15.54
15.23
14.83
14.35
13.80
13.22
12.65
12.18
11.87
11.74
11.74
11.72
11.47
10.81
9.64
8.06
6.28
4.59
3.18
2.04
1.03
-0.08
-1.45
-3.13
-5.10
-7.31
-9.76
-12.44
-15.30
-18.17
-20.79
-22.94
-24.51
-25.57
-26.39
-27.26
-28.41
-29.97
-31.92
-34.07
-36.12
-37.59
-37.97
-36.80
-33.88
-29.35
-23.71
-17.58
-11.54
-5.95
-0.93
3.52
7.38
10.56
12.89
14.27
14.75
14.56
14.07
13.63
13.48
13.72
14.33
15.21
16.25
17.33
18.31
19.01
19.23
18.84
17.87
16.54
15.21
14.25
13.84
13.92
14.18
14.27
13.91
13.06
11.89
10.64
9.55
8.69
7.97
7.19
6.16
4.79
3.10
1.24
-0.63
-2.44
-4.26
-6.23
-8.51
-11.14
-13.99
-16.83
-19.41
-21.66
-23.65
-25.60
-27.72
-30.18
-33.01
-36.16
-39.52
-42.92
-46.11
-48.76
-50.41
-50.59
-48.94
-45.30
-39.81
-32.93
-25.25
-17.42
-9.97
-3.22
2.66
7.67
11.85
15.24
17.85
19.73
20.99
21.82
22.48
23.19
24.11
25.23
26.42
27.52
28.43
29.18
29.87
30.63
31.50
32.35
33.00
33.26
33.03
32.39
31.46
30.42
29.32
28.18
26.95
25.59
24.12
22.57
20.98
19.39
17.80
16.22
14.59
12.87
11.00
8.98
6.89
4.79
2.76
0.79
-1.25
-3.53
-6.18
-9.24
-12.61
-16.08
-19.42
-22.44
-25.11
-27.54
-29.97
-32.71
-35.95
-39.69
-43.61
-47.19
-49.78
-50.83
-49.97
-47.08
-42.25
-35.72
-27.90
-19.32
-10.59
-2.32
5.00
11.17
16.25
20.43
23.94
26.87
29.18
30.77
31.65
31.91
31.80
31.58
31.43
31.43
31.56
31.76
32.01
32.29
32.63
33.01
33.39
33.65
33.67
33.35
32.64
31.57
30.24
28.79
27.31
25.88
24.49
23.10
21.67
20.22
18.75
17.35
16.03
14.73
13.37
11.86
10.16
8.35
6.54
4.81
3.19
1.55
-0.32
-2.59
-5.34
-8.48
-11.76
-14.87
-17.58
-19.83
-21.74
-23.67
-25.96
-28.86
-32.37
-36.16
-39.69
-42.35
-43.64
-43.28
-41.24
-37.62
-32.64
-26.57
-19.73
-12.51
-5.33
1.37
7.30
12.27
16.25
19.34
21.63
23.22
24.19
24.64
24.75
24.75
24.83
25.16
25.74
26.46
27.13
27.58
27.71
27.52
27.10
26.53
25.87
25.06
24.02
22.68
21.04
19.19
17.26
15.35
13.53
11.80
10.17
8.63
7.16
5.76
4.39
2.99
1.52
-0.04
-1.70
-3.48
-5.41
-7.50
-9.71
-11.97
-14.19
-16.37
-18.52
-20.70
-22.93
-25.17
-27.36
-29.48
-31.60
-33.90
-36.47
-39.22
-41.78
-43.58
-44.06
-42.87
-40.00
-35.77
-30.60
-24.94
-19.04
-13.02
-6.91
-0.81
5.10
10.55
15.20
18.85
21.40
22.96
23.77
24.16
24.42
24.78
25.27
25.82
26.31
26.60
26.66
26.52
26.26
25.91
25.49
24.92
24.14
23.12
21.89
20.57
19.30
18.17
17.21
16.35
15.49
14.51
13.39
12.20
11.07
10.09
9.29
8.58
7.78
6.71
5.27
3.47
1.43
-0.65
-2.65
-4.52
-6.31
-8.11
-10.02
-12.04
-14.14
-16.24
-18.30
-20.28
-22.20
-24.06
-25.86
-27.59
-29.28
-31.03
-32.99
-35.18
-37.48
-39.48
-40.64
-40.44
-38.58
-35.08
-30.27
-24.64
-18.67
-12.79
-7.25
-2.20
2.23
5.94
8.86
10.98
12.37
13.18
13.62
13.89
14.17
14.54
15.01
15.51
15.98
16.36
16.67
16.98
17.37
17.89
18.51
19.08
19.47
19.54
19.27
18.71
17.95
17.08
16.09
14.91
13.46
11.75
9.84
7.92
6.19
4.74
3.58
2.61
1.70
0.78
-0.14
-0.98
-1.69
-2.26
-2.79
-3.41
-4.24
-5.33
-6.64
-8.08
-9.53
-10.91
-12.20
-13.47
-14.78
-16.21
-17.81
-19.53
-21.33
-23.20
-25.16
-27.26
-29.45
-31.52
-33.14
-33.90
-33.49
-31.83
-29.08
-25.54
-21.55
-17.34
-13.01
-8.63
-4.25
-0.06
3.72
6.81
9.07
10.46
11.14
11.41
11.55
11.79
12.20
12.70
13.16
13.46
13.58
13.65
13.79
14.10
14.58
15.09
15.45
15.53
15.26
14.69
13.91
13.03
12.12
11.19
10.23
9.20
8.06
6.81
5.48
4.07
2.57
0.96
-0.78
-2.60
-4.36
-5.89
-7.10
-8.04
-8.91
-9.96
-11.36
-13.14
-15.13
-17.13
-19.00
-20.77
-22.53
-24.41
-26.45
-28.57
-30.68
-32.70
-34.61
-36.45
-38.17
-39.64
-40.65
-40.93
-40.26
-38.50
-35.63
-31.75
-27.05
-21.81
-16.34
-10.93
-5.77
-1.00
3.29
7.01
10.00
12.16
13.47
14.10
14.34
14.51
14.82
15.31
15.84
16.27
16.53
16.68
16.85
17.14
17.54
17.94
18.19
18.19
17.91
17.38
16.66
15.85
15.01
14.15
13.28
12.39
11.42
10.36
9.25
8.18
7.24
6.48
5.85
5.20
4.36
3.28
2.00
0.67
-0.56
-1.69
-2.81
-4.16
-5.93
-8.17
-10.69
-13.20
-15.44
-17.34
-19.04
-20.80
-22.87
-25.41
-28.45
-31.90
-35.60
-39.33
-42.73
-45.36
-46.78
-46.67
-44.91
-41.60
-37.01
-31.52
-25.50
-19.33
-13.31
-7.65
-2.53
2.00
5.93
9.23
11.90
13.94
15.43
16.55
17.55
18.63
19.87
21.22
22.52
23.58
24.35
24.87
25.24
25.57
25.91
26.22
26.39
26.32
25.95
25.33
24.56
23.78
23.11
22.59
22.12
21.59
20.88
19.95
18.83
17.63
16.39
15.09
13.61
11.83
9.69
7.29
4.83
2.55
0.57
-1.15
-2.81
-4.64
-6.82
-9.33
-12.07
-14.84
-17.50
-20.04
-22.51
-24.99
-27.56
-30.27
-33.19
-36.40
-39.89
-43.51
-46.84
-49.31
-50.32
-49.41
-46.45
-41.61
-35.29
-28.01
-20.23
-12.34
-4.71
2.36
8.64
14.01
18.44
21.94
24.56
26.37
27.43
27.96
28.20
28.47
28.98
29.83
30.94
32.10
33.16
33.99
34.60
35.06
35.40
35.56
35.42
34.88
33.84
32.40
30.72
29.04
27.51
26.11
24.71
23.13
21.26
19.16
17.02
15.03
13.25
11.57
9.75
7.60
5.08
2.36
-0.31
-2.69
-4.80
-6.83
-9.13
-11.91
-15.21
-18.73
-22.07
-24.85
-26.94
-28.51
-30.00
-31.91
-34.58
-38.06
-42.07
-46.07
-49.41
-51.45
-51.72
-49.97
-46.19
-40.56
-33.42
-25.16
-16.31
-7.40
1.05
8.58
14.93
20.03
23.99
27.02
29.34
31.08
32.34
33.19
33.71
34.03
34.31
34.68
35.17
35.76
36.34
36.74
36.86
36.62
36.03
35.17
34.10
32.81
31.25
29.33
27.03
24.47
21.86
19.46
17.39
15.61
13.87
11.92
9.58
6.90
4.07
1.39
-1.01
-3.13
-5.11
-7.14
-9.30
-11.56
-13.84
-16.04
-18.19
-20.37
-22.67
-25.13
-27.73
-30.41
-33.17
-36.09
-39.31
-42.93
-46.87
-50.77
-54.02
-55.84
-55.56
-52.80
-47.62
-40.49
-32.14
-23.29
-14.48
-6.00
2.04
9.63
16.60
22.70
27.63
31.18
33.37
34.47
34.91
35.17
35.59
36.22
36.95
37.52
37.76
37.62
37.18
36.56
35.84
34.97
33.89
32.51
30.89
29.16
27.54
26.15
25.00
23.98
22.87
21.50
19.80
17.84
15.73
13.67
11.72
9.92
8.20
6.49
4.76
2.98
1.19
-0.60
-2.40
-4.29
-6.38
-8.78
-11.53
-14.59
-17.82
-21.02
-24.05
-26.88
-29.58
-32.30
-35.20
-38.34
-41.70
-45.12
-48.29
-50.80
-52.15
-51.88
-49.62
-45.32
-39.17
-31.64
-23.30
-14.71
-6.32
1.54
8.67
14.90
20.14
24.37
27.62
29.96
31.50
32.34
32.62
32.49
32.14
31.74
31.45
31.33
31.29
31.21
30.93
30.35
29.43
28.14
26.50
24.53
22.38
20.24
18.44
17.18
16.54
16.35
16.25
15.91
15.08
13.73
12.01
10.10
8.17
6.31
4.51
2.73
0.91
-1.00
-3.04
-5.25
-7.59
-10.00
-12.42
-14.77
-17.04
-19.18
-21.20
-23.08
-24.82
-26.49
-28.21
-30.12
-32.31
-34.72
-37.04
-38.77
-39.32
-38.25
-35.37
-30.82
-25.03
-18.56
-11.95
-5.66
-0.04
4.64
8.24
10.72
12.16
12.82
13.00
13.02
13.13
13.44
13.94
14.60
15.36
16.15
16.97
17.81
18.69
19.63
20.58
21.43
21.97
21.99
21.33
20.00
18.22
16.30
14.55
13.11
11.93
10.79
9.48
7.90
6.14
4.40
2.82
1.38
-0.04
-1.64
-3.50
-5.54
-7.59
-9.44
-11.04
-12.50
-14.07
-15.96
-18.23
-20.81
-23.47
-26.05
-28.51
-30.95
-33.57
-36.52
-39.78
-43.11
-46.09
-48.27
-49.25
-48.81
-46.82
-43.32
-38.46
-32.48
-25.78
-18.77
-11.87
-5.42
0.42
5.59
10.08
13.90
17.03
19.49
21.28
22.48
23.16
23.49
23.61
23.73
24.04
24.67
25.63
26.75
27.77
28.43
28.55
28.15
27.33
26.26
25.08
23.86
22.56
21.11
19.36
17.21
14.69
11.94
9.29
7.08
5.50
4.57
4.05
3.64
3.08
2.27
1.28
0.23
-0.83
-1.92
-3.12
-4.52
-6.11
-7.85
-9.68
-11.57
-13.55
-15.63
-17.80
-20.03
-22.24
-24.38
-26.48
-28.62
-30.94
-33.55
-36.46
-39.49
-42.27
-44.31
-45.14
-44.44
-42.06
-38.10
-32.81
-26.52
-19.68
-12.76
-6.25
-0.59
3.91
7.17
9.34
10.71
11.65
12.47
13.38
14.45
15.67
16.98
18.33
19.67
20.97
22.24
23.44
24.54
25.46
26.11
26.44
26.42
26.10
25.56
24.92
24.19
23.35
22.33
21.06
19.56
17.92
16.32
14.85
13.54
12.25
10.78
8.99
6.91
4.69
2.62
0.91
-0.38
-1.44
-2.53
-3.95
-5.79
-7.97
-10.29
-12.52
-14.52
-16.30
-17.96
-19.58
-21.25
-22.99
-24.85
-26.95
-29.46
-32.53
-36.06
-39.66
-42.63
-44.17
-43.69
-41.02
-36.53
-30.89
-24.83
-18.89
-13.34
-8.24
-3.62
0.41
3.68
6.11
7.72
8.73
9.43
10.05
10.70
11.42
12.13
12.79
13.41
14.02
14.71
15.61
16.77
18.20
19.77
21.19
22.17
22.49
22.12
21.26
20.18
19.14
18.18
17.21
16.03
14.56
12.89
11.25
9.91
8.97
8.30
7.59
6.51
4.90
2.80
0.45
-1.84
-3.89
-5.69
-7.46
-9.46
-11.88
-14.65
-17.53
-20.18
-22.35
-24.04
-25.46
-26.97
-28.85
-31.24
-34.02
-36.92
-39.55
-41.54
-42.60
-42.49
-41.08
-38.35
-34.36
-29.28
-23.37
-16.98
-10.51
-4.39
1.05
5.60
9.23
12.04
14.16
15.74
16.87
17.65
18.21
18.69
19.24
19.94
20.80
21.71
22.57
23.28
23.85
24.30
24.69
24.99
25.12
24.98
24.47
23.58
22.40
21.05
19.69
18.45
17.36
16.35
15.35
14.26
13.08
11.82
10.54
9.28
8.03
6.71
5.20
3.46
1.46
-0.71
-2.89
-4.95
-6.81
-8.53
-10.21
-12.04
-14.10
-16.40
-18.84
-21.24
-23.46
-25.51
-27.53
-29.78
-32.49
-35.74
-39.35
-42.90
-45.88
-47.75
-48.16
-46.95
-44.15
-39.93
-34.52
-28.22
-21.37
-14.38
-7.67
-1.55
3.79
8.31
12.10
15.28
17.92
20.05
21.65
22.74
23.43
23.85
24.17
24.55
25.09
25.79
26.60
27.38
28.00
28.39
28.55
28.57
28.52
28.45
28.29
27.92
27.29
26.41
25.36
24.29
23.24
22.15
20.90
19.41
17.76
16.12
14.72
13.68
12.92
12.21
11.24
9.82
7.91
5.69
3.42
1.36
-0.39
-1.86
-3.27
-4.86
-6.81
-9.19
-11.88
-14.70
-17.40
-19.87
-22.10
-24.20
-26.33
-28.58
-31.00
-33.56
-36.18
-38.76
-41.15
-43.14
-44.37
-44.44
-42.98
-39.82
-35.04
-28.95
-22.07
-14.94
-8.01
-1.63
4.01
8.82
12.76
15.86
18.12
19.59
20.37
20.65
20.69
20.75
21.04
21.61
22.36
23.09
23.62
23.89
23.98
24.04
24.22
24.56
24.93
25.14
25.03
24.54
23.74
22.78
21.76
20.71
19.56
18.19
16.56
14.69
12.70
10.75
8.96
7.38
5.95
4.57
3.15
1.66
0.17
-1.23
-2.45
-3.51
-4.57
-5.84
-7.53
-9.70
-12.20
-14.77
-17.12
-19.10
-20.76
-22.30
-24.01
-26.12
-28.70
-31.63
-34.65
-37.33
-39.25
-40.02
-39.40
-37.27
-33.73
-28.98
-23.33
-17.16
-10.80
-4.59
1.20
6.36
10.76
14.34
17.06
18.94
20.01
20.38
20.17
19.61
18.88
18.24
17.82
17.73
17.95
18.39
18.92
19.42
19.81
20.08
20.23
20.22
19.96
19.36
18.39
17.15
15.83
14.69
13.82
13.17
12.54
11.72
10.61
9.33
8.09
7.11
6.44
5.90
5.18
4.02
2.29
0.16
-2.09
-4.16
-5.93
-7.50
-9.12
-11.03
-13.34
-15.96
-18.69
-21.27
-23.59
-25.66
-27.66
-29.77
-32.17
-34.91
-37.92
-40.97
-43.73
-45.82
-46.85
-46.53
-44.69
-41.33
-36.59
-30.77
-24.27
-17.52
-10.94
-4.84
0.60
5.35
9.41
12.83
15.62
17.75
19.23
20.14
20.69
21.12
21.63
22.33
23.19
24.04
24.73
25.17
25.39
25.52
25.68
25.89
26.08
26.04
25.62
24.79
23.67
22.51
21.55
20.96
20.74
20.68
20.55
20.09
19.20
17.88
16.25
14.52
12.83
11.30
9.91
8.59
7.22
5.78
4.25
2.74
1.32
0.00
-1.34
-2.91
-4.88
-7.30
-10.07
-12.94
-15.66
-18.09
-20.20
-22.14
-24.08
-26.18
-28.57
-31.28
-34.27
-37.42
-40.52
-43.19
-44.99
-45.44
-44.20
-41.16
-36.49
-30.66
-24.19
-17.61
-11.27
-5.32
0.21
5.31
9.90
13.76
16.68
18.47
19.13
18.91
18.22
17.58
17.44
18.09
19.57
21.64
23.86
25.77
26.98
27.37
27.04
26.24
25.24
24.24
23.33
22.48
21.67
20.88
20.10
19.31
18.49
17.57
16.52
15.33
14.03
12.66
11.27
9.92
8.64
7.39
6.10
4.69
3.10
1.33
-0.57
-2.58
-4.67
-6.87
-9.18
-11.51
-13.69
-15.51
-16.90
-17.94
-18.84
-19.90
-21.26
-22.95
-24.89
-26.98
-29.18
-31.49
-33.83
-36.00
-37.64
-38.34
-37.77
-35.80
-32.43
-27.83
-22.21
-15.80
-8.91
-1.84
5.00
11.16
16.22
19.85
21.89
22.43
21.77
20.45
19.09
18.24
18.22
18.99
20.22
21.39
22.06
21.98
21.19
19.92
18.50
17.20
16.18
15.42
14.84
14.33
13.75
13.02
12.04
10.79
9.34
7.80
6.33
5.05
4.00
3.12
2.33
1.56
0.87
0.34
0.10
0.17
0.48
0.83
0.98
0.76
0.06
-1.14
-2.77
-4.74
-6.97
-9.33
-11.72
-14.07
-16.40
-18.84
-21.63
-24.93
-28.76
-32.84
-36.64
-39.55
-41.07
-40.98
-39.33
-36.36
-32.37
-27.59
-22.24
-16.58
-10.94
-5.66
-1.00
2.95
6.28
9.18
11.75
13.98
15.73
16.86
17.36
17.35
17.10
16.90
16.96
17.41
18.26
19.40
20.68
21.92
22.96
23.72
24.19
24.40
24.39
24.17
23.71
23.02
22.05
20.86
19.49
17.95
16.22
14.30
12.28
10.32
8.63
7.37
6.54
5.93
5.26
4.22
2.67
0.67
-1.59
-3.91
-6.16
-8.33
-10.50
-12.75
-15.09
-17.51
-19.88
-22.10
-24.10
-25.87
-27.49
-29.10
-30.83
-32.78
-34.99
-37.38
-39.79
-41.98
-43.60
-44.23
-43.49
-41.10
-36.98
-31.33
-24.64
-17.52
-10.62
-4.42
0.85
5.17
8.65
11.43
13.58
15.14
16.12
16.61
16.80
16.91
17.13
17.62
18.38
19.32
20.31
21.25
22.05
22.72
23.27
23.69
23.92
23.82
23.26
22.20
20.69
18.96
17.28
15.85
14.69
13.67
12.59
11.32
9.89
8.44
7.17
6.16
5.35
4.53
3.46
1.95
-0.08
-2.55
-5.26
-7.91
-10.15
-11.77
-12.73
-13.22
-13.59
-14.13
-15.01
-16.22
-17.63
-19.20
-20.96
-23.02
-25.44
-28.05
-30.47
-32.23
-32.93
-32.39
-30.69
-28.05
-24.68
-20.73
-16.29
-11.43
-6.30
-1.17
3.62
7.76
11.03
13.36
14.83
15.70
16.22
16.60
16.95
17.32
17.71
18.15
18.74
19.55
20.60
21.80
22.96
23.89
24.44
24.59
24.37
23.84
23.05
22.02
20.73
19.24
17.61
15.99
14.51
13.26
12.25
11.40
10.53
9.46
8.12
6.51
4.78
3.09
1.58
0.24
-1.03
-2.41
-4.06
-6.13
-8.62
-11.39
-14.24
-16.88
-19.13
-20.94
-22.46
-23.98
-25.76
-27.94
-30.42
-32.92
-35.09
-36.58
-37.12
-36.48
-34.51
-31.16
-26.55
-20.98
-14.95
-8.98
-3.51
1.22
5.21
8.60
11.51
14.02
16.06
17.55
18.45
18.84
18.93
18.96
19.12
19.45
19.86
20.20
20.35
20.33
20.26
20.29
20.46
20.69
20.78
20.58
20.02
19.26
18.55
18.15
18.10
18.26
18.28
17.78
16.56
14.62
12.21
9.70
7.41
5.50
4.00
2.78
1.74
0.80
-0.07
-0.87
-1.65
-2.55
-3.68
-5.15
-6.92
-8.83
-10.65
-12.18
-13.35
-14.21
-14.92
-15.66
-16.60
-17.80
-19.27
-21.00
-23.00
-25.24
-27.64
-30.00
-31.98
-33.13
-33.01
-31.34
-28.14
-23.73
-18.63
-13.38
-8.38
-3.79
0.40
4.27
7.78
10.77
13.01
14.41
15.03
15.17
15.21
15.50
16.22
17.31
18.53
19.63
20.39
20.75
20.81
20.71
20.55
20.33
19.98
19.40
18.60
17.68
16.84
16.25
15.96
15.87
15.76
15.40
14.65
13.48
11.96
10.22
8.34
6.39
4.43
2.54
0.83
-0.52
-1.40
-1.74
-1.65
-1.38
-1.21
-1.38
-1.95
-2.79
-3.68
-4.46
-5.14
-5.91
-6.98
-8.44
-10.21
-12.06
-13.73
-15.11
-16.31
-17.59
-19.20
-21.26
-23.69
-26.20
-28.42
-29.97
-30.59
-30.09
-28.48
-25.85
-22.45
-18.57
-14.48
-10.42
-6.57
-3.04
0.03
2.57
4.55
6.07
7.30
8.45
9.63
10.81
11.85
12.58
12.98
13.15
13.31
13.70
14.38
15.26
16.13
16.71
16.89
16.62
15.98
15.12
14.12
13.07
11.98
10.92
9.90
8.98
8.19
7.54
6.99
6.48
5.98
5.47
4.95
4.43
3.85
3.16
2.28
1.15
-0.20
-1.76
-3.46
-5.25
-7.08
-8.87
-10.56
-12.17
-13.72
-15.26
-16.73
-17.95
-18.76
-19.07
-19.05
-19.06
-19.51
-20.62
-22.35
-24.28
-25.93
-26.77
-26.58
-25.30
-23.08
-20.15
-16.78
-13.23
-9.74
-6.46
-3.47
-0.82
1.47
3.34
4.73
5.56
5.82
5.59
4.98
4.17
3.37
2.83
2.80
3.48
4.85
6.72
8.73
10.50
11.76
12.46
12.75
12.86
12.97
13.13
13.32
13.46
13.47
13.32
13.01
12.56
11.93
11.17
10.29
9.32
8.31
7.30
6.31
5.33
4.30
3.16
1.84
0.29
-1.43
-3.25
-5.04
-6.73
-8.33
-9.90
-11.56
-13.41
-15.46
-17.67
-19.95
-22.16
-24.21
-25.99
-27.51
-28.88
-30.31
-32.05
-34.24
-36.85
-39.62
-42.13
-43.91
-44.59
-43.99
-42.06
-38.88
-34.57
-29.33
-23.38
-17.05
-10.72
-4.73
0.66
5.33
9.32
12.69
15.52
17.84
19.66
20.98
21.87
22.53
23.17
24.07
25.40
27.19
29.29
31.39
33.17
34.38
34.90
34.67
33.73
32.11
29.82
26.96
23.73
20.45
17.47
15.02
13.20
11.89
10.86
9.90
8.90
7.92
7.12
6.65
6.59
6.85
7.17
7.23
6.77
5.75
4.36
3.06
2.36
2.61
3.81
5.57
7.31
8.38
8.37
7.20
5.17
2.79
0.65
-0.76
-1.18
-0.64
0.34
0.85
-0.19
-3.67
-9.89
-18.22
-27.30
-35.43
-41.19
-43.99
-44.05
-42.24
-39.48
-36.48
-33.49
-30.51
-27.49
-24.42
-21.30
-17.97
-14.11
-9.30
-3.25
4.03
12.12
20.36
27.98
34.32
38.99
41.83
42.94
42.58
41.18
39.24
37.22
35.43
33.90
32.48
30.88
28.87
26.36
23.37
19.99
16.25
12.16
7.81
3.47
-0.41
-3.24
-4.56
-4.21
-2.44
0.06
2.41
3.79
3.73
2.24
-0.27
-3.16
-5.92
-8.37
-10.73
-13.46
-16.96
-21.34
-26.33
-31.44
-36.17
-40.26
-43.69
-46.59
-49.06
-51.00
-52.26
-52.76
-52.75
-52.70
-53.12
-54.16
-55.44
-55.99
-54.66
-50.65
-43.86
-35.00
-25.27
-15.88
-7.62
-0.71
5.01
9.87
14.07
17.71
20.88
23.75
26.56
29.39
32.01
33.84
34.23
32.83
29.92
26.33
23.16
21.26
20.89
21.70
22.98
24.00
24.36
24.04
23.26
22.37
21.64
21.24
21.20
21.47
21.95
22.49
23.03
23.53
23.97
24.27
24.24
23.60
22.12
19.71
16.58
13.20
10.08
7.64
5.94
4.70
3.44
1.73
-0.61
-3.46
-6.49
-9.41
-12.09
-14.65
-17.37
-20.47
-23.98
-27.77
-31.57
-35.15
-38.52
-41.82
-45.22
-48.69
-51.90
-54.24
-55.07
-53.92
-50.75
-45.89
-39.93
-33.39
-26.59
-19.55
-12.17
-4.45
3.34
10.63
16.73
21.09
23.57
24.47
24.42
24.19
24.35
25.15
26.53
28.23
30.02
31.79
33.55
35.36
37.19
38.86
40.11
40.64
40.30
39.17
37.48
35.59
33.77
32.10
30.52
28.79
26.76
24.41
21.89
19.47
17.38
15.68
14.25
12.87
11.36
9.71
8.06
6.60
5.39
4.31
3.09
1.54
-0.37
-2.37
-4.15
-5.49
-6.42
-7.23
-8.21
-9.55
-11.19
-12.88
-14.41
-15.66
-16.76
-17.89
-19.28
-21.08
-23.35
-26.10
-29.25
-32.61
-35.84
-38.51
-40.19
-40.61
-39.61
-37.21
-33.55
-28.78
-23.17
-17.09
-10.95
-5.13
0.09
4.68
8.72
12.38
15.73
18.66
20.96
22.43
23.03
22.94
22.49
22.06
21.87
21.95
22.18
22.38
22.50
22.61
22.83
23.24
23.71
24.00
23.89
23.32
22.48
21.69
21.15
20.90
20.71
20.27
19.38
18.06
16.54
15.13
14.12
13.61
13.54
13.73
13.86
13.64
12.83
11.39
9.46
7.35
5.41
3.86
2.67
1.61
0.35
-1.34
-3.51
-5.97
-8.42
-10.60
-12.43
-13.99
-15.50
-17.16
-19.15
-21.44
-23.98
-26.57
-28.96
-30.83
-31.80
-31.47
-29.58
-26.09
-21.28
-15.76
-10.17
-5.00
-0.38
3.86
8.00
12.13
15.93
18.78
20.05
19.48
17.34
14.42
11.64
9.71
8.89
8.97
9.52
10.11
10.56
10.91
11.32
11.92
12.65
13.28
13.50
13.11
12.14
10.81
9.46
8.37
7.63
7.14
6.69
6.13
5.38
4.52
3.62
2.79
2.08
1.51
1.07
0.76
0.58
0.46
0.33
0.12
-0.26
-0.91
-1.90
-3.29
-5.00
-6.81
-8.47
-9.69
-10.43
-10.85
-11.31
-12.18
-13.67
-15.73
-18.10
-20.54
-22.89
-25.18
-27.52
-29.97
-32.46
-34.82
-36.79
-38.14
-38.72
-38.42
-37.20
-35.02
-31.88
-27.81
-22.92
-17.40
-11.54
-5.75
-0.44
3.99
7.26
9.29
10.17
10.19
9.77
9.34
9.28
9.82
11.05
12.86
15.05
17.34
19.48
21.32
22.77
23.80
24.44
24.73
24.75
24.62
24.47
24.39
24.37
24.33
24.17
23.84
23.44
23.15
23.16
23.49
23.90
23.94
23.18
21.40
18.75
15.73
12.94
10.85
9.54
8.73
7.88
6.47
4.19
1.08
-2.47
-5.78
-8.07
-8.62
-6.89
-2.69
3.77
12.06
21.48
31.31
40.82
49.33
56.29
61.51
65.39
68.91
73.18
78.71
84.92
90.02
91.83
88.75
80.64
68.95
55.93
43.53
32.63
22.91
13.53
3.89
-5.87
-14.97
-22.62
-28.53
-33.02
-36.82
-40.48
-44.15
-47.61
-50.60
-53.25
-56.14
-60.05
-65.38
-71.64
-77.28
-80.11
-78.13
-70.54
-58.48
-44.95
-34.03
-29.54
-33.57
-45.69
-62.86
-80.50
-93.97
-100.22
-98.46
-90.21
-78.35
-66.06
-55.85
-49.05
-45.85
-45.50
-46.79
-48.38
-49.10
-48.24
-45.44
-40.71
-34.29
-26.58
-18.23
-10.43
-4.99
-4.13
-9.92
-23.48
-44.25
-69.59
-95.16
-115.90
-127.49
-127.91
-118.23
-102.36
-85.73
-73.24
-67.44
-67.61
-70.39
-71.42
-67.30
-57.11
-42.43
-26.26
-11.46
0.56
10.15
18.76
27.96
38.47
49.99
61.60
72.55
82.79
92.94
103.85
115.87
128.39
140.01
149.26
155.57
159.87
164.42
171.77
183.19
197.45
210.62
217.13
211.57
190.53
153.59
103.41
45.07
-15.02
-70.04
-113.78
-141.57
-151.13
-143.02
-120.58
-89.08
-54.39
-21.66
5.62
25.81
38.88
45.82
48.23
47.93
46.66
45.81
46.07
47.27
48.45
48.17
45.06
38.46
28.62
16.59
3.67
-9.24
-21.97
-34.91
-48.41
-62.12
-74.74
-84.29
-88.87
-87.53
-80.80
-70.73
-60.56
-53.85
-53.56
-60.98
-74.96
-91.68
-105.27
-109.38
-99.16
-73.06
-33.55
13.49
60.55
100.68
129.25
144.58
147.63
141.00
127.86
111.23
93.62
76.91
62.38
50.64
41.63
34.68
28.67
22.40
15.06
6.50
-2.69
-11.38
-18.37
-22.83
-24.74
-24.89
-24.59
-25.16
-27.39
-31.27
-36.10
-40.79
-44.41
-46.56
-47.49
-47.88
-48.45
-49.62
-51.38
-53.41
-55.27
-56.67
-57.65
-58.46
-59.44
-60.71
-62.18
-63.62
-64.96
-66.32
-68.05
-70.60
-74.16
-78.52
-82.80
-85.79
-86.59
-84.86
-80.83
-75.06
-68.29
-61.16
-54.14
-47.10
-39.79
-32.41
-25.57
-19.91
-15.70
-12.79
-10.67
-8.69
-5.80
-1.39
3.96
8.93
12.48
14.79
17.08
21.10
28.08
38.96
53.63
70.56
87.66
103.39
117.04
128.11
135.71
134.07
119.33
94.85
69.63
51.38
42.56
41.32
42.99
43.39
39.70
31.71
20.92
7.90
-6.34
-20.64
-33.71
-44.52
-52.32
-56.86
-57.70
-54.74
-48.87
-41.63
-34.64
-28.94
-24.94
-22.38
-20.71
-18.87
-15.88
-11.36
-5.57
0.94
7.64
14.13
20.28
26.05
31.70
37.51
43.35
48.77
53.03
55.54
55.97
54.47
51.50
47.82
44.03
40.50
37.26
34.22
31.33
28.71
26.62
25.30
24.84
25.09
25.69
26.18
26.20
25.59
24.44
23.17
22.19
21.71
21.67
21.68
21.29
20.19
18.42
16.33
14.39
12.92
11.92
11.13
10.22
9.09
7.85
6.85
6.33
6.28
6.29
5.78
4.36
2.00
-0.80
-3.37
-5.19
-6.27
-7.20
-8.84
-11.85
-16.29
-21.61
-26.85
-31.22
-34.47
-37.01
-39.69
-43.27
-47.97
-53.31
-58.25
-61.70
-62.90
-61.72
-58.58
-54.08
-48.74
-42.82
-36.34
-29.35
-22.08
-14.96
-8.47
-2.94
1.58
5.35
8.72
11.96
15.06
17.77
19.73
20.72
20.88
20.62
20.59
21.24
22.63
24.37
25.83
26.47
26.15
25.19
24.22
23.81
24.12
24.94
25.73
26.00
25.54
24.40
22.93
21.44
20.06
18.75
17.32
15.65
13.77
11.93
10.49
9.68
9.50
9.68
9.81
9.55
8.81
7.79
6.90
6.44
6.50
6.81
6.95
6.56
5.53
4.05
2.49
1.15
0.04
-1.09
-2.62
-4.81
-7.62
-10.82
-14.01
-17.05
-20.06
-23.31
-26.97
-30.87
-34.40
-36.87
-37.71
-36.85
-34.72
-32.05
-29.61
-27.94
-27.23
-27.35
-27.87
-28.32
-28.22
-27.33
-25.74
-23.87
-22.25
-21.24
-20.78
-20.38
-19.38
-17.29
-14.05
-10.07
-5.91
-2.08
1.34
4.46
7.43
10.22
12.51
13.91
14.22
13.63
12.75
12.24
12.53
13.55
14.84
15.80
16.03
15.52
14.70
14.00
13.72
13.73
13.67
13.11
11.92
10.28
8.64
7.44
6.81
6.56
6.30
5.67
4.59
3.26
1.99
1.05
0.41
-0.19
-1.14
-2.76
-5.05
-7.79
-10.60
-13.21
-15.65
-18.18
-21.05
-24.24
-27.31
-29.49
-29.94
-28.17
-24.28
-18.91
-12.94
-7.14
-1.92
2.71
6.98
11.04
14.82
18.05
20.34
21.48
21.51
20.80
19.92
19.35
19.35
19.82
20.44
20.90
21.13
21.32
21.81
22.82
24.18
25.43
25.93
25.29
23.56
21.23
19.01
17.43
16.61
16.24
15.82
14.91
13.42
11.64
10.08
9.19
9.12
9.67
10.34
10.63
10.24
9.17
7.80
6.51
5.56
4.90
4.23
3.18
1.60
-0.36
-2.30
-3.84
-4.87
-5.62
-6.60
-8.33
-11.06
-14.69
-18.81
-22.97
-26.90
-30.62
-34.37
-38.29
-42.23
-45.71
-48.01
-48.53
-47.00
-43.65
-39.02
-33.77
-28.40
-23.16
-18.07
-13.07
-8.19
-3.57
0.48
3.69
5.93
7.31
8.17
8.98
10.08
11.62
13.51
15.51
17.39
19.03
20.47
21.75
22.86
23.68
24.03
23.78
22.98
21.84
20.69
19.78
19.18
18.81
18.45
17.95
17.26
16.45
15.70
15.08
14.54
13.90
12.93
11.52
9.71
7.73
5.88
4.36
3.19
2.19
1.08
-0.39
-2.24
-4.35
-6.48
-8.48
-10.39
-12.45
-14.92
-17.96
-21.47
-25.09
-28.32
-30.72
-32.16
-32.90
-33.48
-34.60
-36.76
-40.08
-44.20
-48.49
-52.18
-54.64
-55.42
-54.30
-51.12
-45.94
-38.94
-30.62
-21.77
-13.32
-6.05
-0.39
3.73
6.66
8.92
10.84
12.49
13.73
14.30
14.07
13.15
11.94
10.95
10.64
11.21
12.56
14.33
16.07
17.42
18.21
18.51
18.47
18.23
17.85
17.26
16.33
15.05
13.54
12.07
10.93
10.29
10.10
10.07
9.85
9.14
7.85
6.21
4.48
2.94
1.67
0.58
-0.57
-1.93
-3.60
-5.48
-7.44
-9.34
-11.13
-12.83
-14.51
-16.20
-17.93
-19.69
-21.60
-23.86
-26.75
-30.46
-34.92
-39.64
-43.80
-46.36
-46.42
-43.48
-37.66
-29.65
-20.51
-11.36
-3.06
3.93
9.57
14.05
17.59
20.37
22.36
23.56
24.08
24.20
24.36
24.95
26.17
27.90
29.83
31.63
33.07
34.20
35.13
35.91
36.43
36.42
35.65
34.10
32.04
29.92
28.15
26.88
25.96
25.06
23.85
22.28
20.47
18.73
17.24
15.97
14.68
13.09
11.06
8.70
6.25
3.97
1.88
-0.24
-2.75
-5.89
-9.63
-13.68
-17.62
-21.15
-24.25
-27.19
-30.38
-34.18
-38.67
-43.55
-48.23
-51.89
-53.78
-53.31
-50.25
-44.71
-37.09
-27.93
-17.85
-7.49
2.53
11.63
19.31
25.27
29.51
32.32
34.16
35.51
36.67
37.74
38.66
39.27
39.54
39.52
39.38
39.29
39.39
39.68
40.06
40.36
40.38
40.01
39.28
38.35
37.38
36.44
35.43
34.15
32.43
30.26
27.87
25.57
23.65
22.16
20.92
19.56
17.78
15.52
12.95
10.48
8.48
7.16
6.39
5.82
5.05
3.78
1.94
-0.30
-2.77
-5.37
-8.12
-11.08
-14.22
-17.37
-20.31
-22.90
-25.27
-27.71
-30.62
-34.18
-38.15
-41.86
-44.45
-45.09
-43.31
-39.13
-32.98
-25.56
-17.63
-9.81
-2.50
4.12
10.01
15.12
19.35
22.58
24.71
25.81
26.06
25.82
25.42
25.10
24.93
24.83
24.73
24.60
24.55
24.79
25.44
26.40
27.40
28.01
27.88
26.94
25.40
23.76
22.47
21.73
21.44
21.21
20.68
19.64
18.18
16.56
15.06
13.75
12.55
11.25
9.71
7.92
6.00
4.11
2.33
0.62
-1.14
-3.05
-5.15
-7.36
-9.54
-11.56
-13.37
-15.01
-16.59
-18.25
-20.08
-22.01
-23.91
-25.57
-26.90
-27.99
-29.14
-30.75
-33.07
-36.05
-39.26
-42.02
-43.62
-43.53
-41.59
-37.92
-32.84
-26.74
-20.06
-13.16
-6.47
-0.41
4.62
8.35
10.71
11.90
12.29
12.34
12.43
12.74
13.26
13.86
14.41
14.90
15.47
16.33
17.62
19.29
21.07
22.58
23.44
23.52
22.92
21.97
20.99
20.23
19.73
19.38
19.12
18.93
18.85
18.94
19.14
19.29
19.19
18.79
18.22
17.79
17.69
17.87
17.88
17.02
14.66
10.58
5.12
-0.96
-6.81
-11.81
-15.87
-19.36
-22.88
-26.98
-31.95
-37.76
-44.08
-50.29
-55.60
-59.07
-59.78
-57.16
-51.30
-43.01
-33.86
-25.57
-19.60
-16.69
-16.80
-19.40
-23.83
-29.59
-36.20
-42.91
-48.48
-51.25
-49.78
-43.44
-32.84
-19.76
-6.49
4.99
13.67
19.75
24.30
28.74
34.13
40.89
48.72
56.89
64.69
71.69
77.86
83.30
87.84
90.86
91.27
87.93
80.14
67.97
52.31
34.55
16.18
-1.56
-17.75
-31.68
-42.77
-50.53
-54.66
-55.25
-52.89
-48.59
-43.68
-39.37
-36.57
-35.62
-36.36
-38.26
-40.65
-42.97
-44.80
-45.99
-46.55
-46.68
-46.70
-46.95
-47.69
-49.01
-50.75
-52.56
-54.06
-54.87
-54.76
-53.57
-51.18
-47.54
-42.74
-37.05
-30.95
-25.02
-19.83
-15.68
-12.61
-10.39
-8.70
-7.23
-5.82
-4.44
-3.18
-2.12
-1.27
-0.61
0.00
0.73
1.72
3.06
4.74
6.66
8.65
10.56
12.29
13.82
15.19
16.41
17.46
18.27
18.76
18.90
18.72
18.34
17.88
17.40
16.92
16.36
15.67
14.81
13.81
12.75
11.67
10.54
9.27
7.75
5.96
3.97
1.95
0.09
-1.45
-2.66
-3.66
-4.65
-5.83
-7.28
-9.03
-10.93
-12.85
-14.67
-16.38
-18.10
-20.02
-22.34
-25.12
-28.21
-31.24
-33.70
-35.15
-35.27
-33.99
-31.45
-27.94
-23.73
-19.16
-14.56
-10.26
-6.50
-3.44
-1.04
0.90
2.62
4.33
6.06
7.71
9.07
10.03
10.62
10.98
11.34
11.83
12.45
13.03
13.30
13.10
12.35
11.18
9.78
8.29
6.76
5.18
3.52
1.88
0.41
-0.73
-1.53
-2.24
-3.24
-4.90
-7.38
-10.48
-13.81
-16.87
-19.34
-21.21
-22.74
-24.31
-26.29
-28.85
-31.99
-35.55
-39.29
-43.06
-46.81
-50.56
-54.41
-58.40
-62.53
-66.81
-71.22
-75.85
-80.77
-85.92
-91.07
-95.74
-99.41
-101.59
-101.83
-99.67
-94.45
-85.36
-71.66
-53.13
-30.44
-5.25
20.26
44.01
64.67
81.94
96.35
108.76
119.84
129.82
138.59
145.99
151.91
156.43
159.58
161.27
161.20
159.04
154.67
148.37
140.79
132.84
125.29
118.60
112.80
107.58
102.47
97.02
90.91
83.91
75.93
67.04
57.54
47.92
38.86
30.95
24.48
19.29
14.85
10.56
6.05
1.35
-3.19
-7.15
-10.38
-13.06
-15.63
-18.41
-21.44
-24.41
-26.81
-28.36
-29.15
-29.66
-30.50
-32.07
-34.39
-37.17
-39.93
-42.40
-44.51
-46.44
-48.40
-50.43
-52.44
-54.19
-55.40
-55.87
-55.47
-54.13
-51.82
-48.52
-44.25
-39.14
-33.38
-27.35
-21.48
-16.20
-11.77
-8.22
-5.35
-2.87
-0.61
1.35
2.63
2.71
1.21
-1.89
-6.18
-11.00
-15.57
-19.52
-22.85
-26.06
-29.89
-34.89
-41.11
-48.01
-54.52
-59.55
-62.41
-63.07
-62.15
-60.51
-59.01
-58.31
-58.76
-60.39
-62.67
-64.25
-62.99
-56.35
-42.43
-20.88
6.63
36.76
65.79
90.94
111.16
127.00
139.72
150.23
158.62
164.25
166.37
164.75
159.83
152.56
143.87
134.37
124.20
113.24
101.40
88.91
76.35
64.39
53.55
43.83
34.64
25.01
13.98
1.07
-13.41
-28.40
-42.41
-54.04
-62.37
-67.25
-69.18
-69.02
-67.66
-65.65
-63.13
-59.92
-55.78
-50.66
-44.85
-38.88
-33.33
-28.62
-24.94
-22.22
-20.29
-18.95
-18.03
-17.35
-16.66
-15.67
-14.11
-11.84
-8.94
-5.68
-2.50
0.18
2.12
3.36
4.20
5.02
6.16
7.71
9.49
11.17
12.38
12.92
12.83
12.29
11.57
10.84
10.12
9.29
8.14
6.53
4.47
2.13
-0.22
-2.37
-4.25
-5.97
-7.74
-9.78
-12.11
-14.66
-17.20
-19.60
-21.88
-24.17
-26.70
-29.54
-32.66
-35.87
-39.01
-42.01
-44.96
-47.94
-50.92
-53.62
-55.53
-56.08
-54.85
-51.77
-47.15
-41.55
-35.61
-29.82
-24.43
-19.44
-14.76
-10.35
-6.30
-2.84
-0.18
1.64
2.84
3.77
4.85
6.32
8.19
10.27
12.31
14.07
15.50
16.69
17.78
18.85
19.89
20.77
21.31
21.37
20.94
20.12
19.12
18.09
17.05
15.96
14.72
13.31
11.85
10.56
9.60
9.00
8.59
8.10
7.25
5.97
4.36
2.66
1.15
-0.04
-0.93
-1.71
-2.61
-3.79
-5.25
-6.90
-8.56
-10.12
-11.61
-13.20
-15.13
-17.57
-20.52
-23.77
-27.04
-30.06
-32.62
-34.61
-35.87
-36.18
-35.27
-32.97
-29.27
-24.43
-18.91
-13.15
-7.55
-2.25
2.73
7.37
11.60
15.23
18.05
19.94
20.94
21.27
21.26
21.24
21.41
21.83
22.43
23.08
23.65
24.07
24.36
24.57
24.79
24.98
25.03
24.79
24.13
23.07
21.74
20.38
19.13
18.04
16.98
15.78
14.30
12.56
10.70
8.90
7.32
5.89
4.44
2.74
0.65
-1.77
-4.26
-6.51
-8.30
-9.65
-10.79
-12.05
-13.73
-15.94
-18.62
-21.61
-24.77
-27.96
-31.05
-33.77
-35.73
-36.47
-35.62
-33.04
-28.88
-23.52
-17.47
-11.22
-5.21
0.27
5.01
8.90
11.93
14.16
15.73
16.76
17.36
17.68
17.79
17.81
17.87
18.03
18.28
18.59
18.85
18.98
18.99
18.88
18.69
18.40
17.91
17.11
15.89
14.28
12.41
10.51
8.83
7.49
6.44
5.49
4.37
2.88
1.00
-1.15
-3.32
-5.31
-7.06
-8.64
-10.20
-11.86
-13.70
-15.68
-17.73
-19.77
-21.76
-23.61
-25.19
-26.28
-26.61
-25.96
-24.17
-21.29
-17.49
-13.09
-8.41
-3.75
0.72
4.90
8.77
12.30
15.35
17.79
19.50
20.49
20.90
21.00
21.00
21.01
21.00
20.89
20.67
20.39
20.22
20.23
20.40
20.50
20.25
19.38
17.80
15.66
13.29
11.07
9.31
8.11
7.31
6.63
5.72
4.42
2.75
0.92
-0.83
-2.30
-3.48
-4.52
-5.63
-6.98
-8.62
-10.48
-12.34
-14.07
-15.54
-16.78
-17.94
-19.19
-20.65
-22.27
-23.82
-24.96
-25.39
-24.94
-23.58
-21.37
-18.40
-14.74
-10.45
-5.74
-0.90
3.64
7.47
10.34
12.22
13.26
13.68
13.64
13.24
12.52
11.58
10.62
9.90
9.63
9.88
10.46
11.07
11.39
11.22
10.61
9.75
8.92
8.26
7.77
7.26
6.47
5.24
3.56
1.62
-0.31
-1.98
-3.30
-4.37
-5.42
-6.73
-8.48
-10.68
-13.13
-15.55
-17.73
-19.59
-21.27
-23.01
-25.06
-27.61
-30.74
-34.41
-38.46
-42.58
-46.32
-49.15
-50.53
-50.03
-47.50
-43.08
-37.18
-30.40
-23.37
-16.57
-10.25
-4.43
1.00
6.18
11.09
15.59
19.45
22.50
24.73
26.31
27.51
28.56
29.59
30.53
31.23
31.57
31.51
31.14
30.60
30.04
29.48
28.79
27.76
26.17
23.95
21.25
18.39
15.75
13.61
11.99
10.71
9.45
7.98
6.21
4.23
2.20
0.21
-1.78
-3.91
-6.28
-8.86
-11.44
-13.74
-15.59
-17.02
-18.31
-19.84
-21.98
-24.83
-28.21
-31.70
-34.70
-36.69
-37.28
-36.30
-33.79
-29.96
-25.03
-19.28
-12.98
-6.43
0.04
6.07
11.39
15.82
19.31
21.96
23.89
25.24
26.14
26.71
27.05
27.27
27.47
27.73
28.07
28.45
28.79
28.96
28.93
28.65
28.17
27.47
26.52
25.26
23.62
21.61
19.34
16.98
14.75
12.81
11.25
10.06
9.13
8.26
7.26
6.00
4.53
2.96
1.54
0.40
-0.45
-1.18
-2.06
-3.31
-5.00
-7.03
-9.19
-11.33
-13.41
-15.55
-17.88
-20.49
-23.33
-26.28
-29.25
-32.26
-35.37
-38.64
-41.97
-44.94
-46.92
-47.21
-45.35
-41.28
-35.41
-28.47
-21.21
-14.18
-7.62
-1.55
4.14
9.44
14.23
18.27
21.34
23.36
24.44
24.90
25.09
25.29
25.64
26.04
26.37
26.51
26.50
26.50
26.64
26.93
27.18
27.10
26.48
25.31
23.85
22.43
21.32
20.52
19.85
18.99
17.78
16.20
14.46
12.74
11.18
9.73
8.28
6.71
5.00
3.24
1.50
-0.17
-1.80
-3.53
-5.44
-7.59
-9.94
-12.37
-14.73
-16.93
-18.90
-20.67
-22.34
-24.07
-26.00
-28.22
-30.78
-33.59
-36.40
-38.91
-40.73
-41.47
-40.83
-38.64
-34.95
-29.97
-24.03
-17.55
-10.95
-4.62
1.11
6.02
10.04
13.20
15.62
17.51
19.04
20.33
21.47
22.48
23.37
24.09
24.64
25.00
25.16
25.13
24.95
24.61
24.12
23.51
22.83
22.15
21.49
20.79
19.90
18.63
16.88
14.66
12.14
9.54
7.03
4.70
2.53
0.51
-1.39
-3.14
-4.76
-6.31
-7.90
-9.67
-11.64
-13.77
-15.93
-18.08
-20.22
-22.48
-24.95
-27.62
-30.28
-32.53
-33.86
-33.81
-32.11
-28.77
-24.09
-18.57
-12.71
-6.92
-1.43
3.67
8.30
12.35
15.61
17.91
19.19
19.58
19.40
19.02
18.76
18.76
18.93
19.08
19.03
18.72
18.23
17.72
17.38
17.25
17.22
17.05
16.49
15.37
13.73
11.78
9.79
8.03
6.57
5.33
4.14
2.81
1.27
-0.41
-2.08
-3.57
-4.82
-5.91
-6.98
-8.13
-9.36
-10.53
-11.48
-12.15
-12.64
-13.21
-14.12
-15.54
-17.42
-19.59
-21.86
-24.14
-26.48
-28.97
-31.58
-34.04
-35.93
-36.66
-35.78
-33.11
-28.78
-23.29
-17.26
-11.26
-5.67
-0.63
3.94
8.10
11.81
14.89
17.11
18.37
18.79
18.73
18.62
18.74
19.11
19.48
19.52
19.00
17.98
16.74
15.68
15.03
14.75
14.59
14.26
13.60
12.70
11.86
11.38
11.39
11.72
12.03
11.94
11.26
10.03
8.49
6.90
5.43
4.04
2.60
0.98
-0.85
-2.84
-4.85
-6.80
-8.68
-10.54
-12.47
-14.48
-16.53
-18.52
-20.43
-22.30
-24.28
-26.51
-28.99
-31.53
-33.71
-34.99
-34.88
-33.10
-29.73
-25.10
-19.77
-14.25
-8.91
-3.94
0.63
4.81
8.56
11.78
14.37
16.24
17.39
17.95
18.13
18.19
18.30
18.54
18.88
19.18
19.31
19.20
18.82
18.24
17.46
16.45
15.18
13.65
11.99
10.38
9.01
7.95
7.14
6.43
5.69
4.85
3.97
3.16
2.47
1.83
1.10
0.09
-1.26
-2.86
-4.44
-5.69
-6.42
-6.63
-6.58
-6.64
-7.18
-8.43
-10.35
-12.68
-15.08
-17.25
-19.10
-20.71
-22.32
-24.23
-26.62
-29.52
-32.76
-36.01
-38.82
-40.68
-41.18
-39.99
-37.03
-32.43
-26.56
-19.92
-13.04
-6.41
-0.36
4.93
9.38
13.00
15.85
18.00
19.51
20.41
20.79
20.75
20.40
19.90
19.33
18.80
18.35
18.05
17.96
18.12
18.49
18.96
19.35
19.46
19.18
18.46
17.38
16.09
14.73
13.41
12.11
10.77
9.27
7.53
5.56
3.50
1.60
0.10
-0.84
-1.22
-1.17
-0.98
-0.98
-1.44
-2.47
-3.93
-5.51
-6.88
-7.84
-8.50
-9.19
-10.26
-11.89
-13.98
-16.17
-18.11
-19.69
-21.07
-22.61
-24.65
-27.32
-30.47
-33.75
-36.73
-39.02
-40.31
-40.38
-39.18
-36.77
-33.31
-28.97
-23.91
-18.30
-12.31
-6.21
-0.35
4.96
9.47
13.06
15.74
17.53
18.53
18.88
18.88
18.92
19.32
20.26
21.56
22.83
23.56
23.50
22.73
21.67
20.80
20.38
20.41
20.62
20.70
20.51
20.13
19.76
19.56
19.53
19.51
19.29
18.72
17.72
16.29
14.43
12.15
9.55
6.81
4.19
1.89
-0.00
-1.54
-2.82
-3.82
-4.48
-4.73
-4.69
-4.73
-5.33
-6.81
-9.17
-12.09
-15.01
-17.48
-19.33
-20.73
-22.11
-23.93
-26.48
-29.84
-33.75
-37.77
-41.37
-44.06
-45.47
-45.41
-43.81
-40.70
-36.16
-30.39
-23.72
-16.60
-9.56
-3.07
2.58
7.33
11.27
14.54
17.24
19.41
21.05
22.20
23.02
23.69
24.39
25.22
26.10
26.87
27.29
27.21
26.64
25.76
24.86
24.21
23.94
23.91
23.82
23.25
21.89
19.62
16.59
13.21
9.90
7.12
5.06
3.79
3.19
3.14
3.51
4.16
4.87
5.31
5.10
3.97
1.89
-0.89
-3.99
-7.07
-9.93
-12.52
-14.83
-16.81
-18.39
-19.56
-20.42
-21.29
-22.53
-24.53
-27.50
-31.47
-36.27
-41.48
-46.54
-50.79
-53.64
-54.65
-53.62
-50.55
-45.55
-38.78
-30.49
-21.09
-11.21
-1.56
7.15
14.49
20.31
24.74
28.03
30.41
32.00
32.90
33.20
33.06
32.70
32.36
32.25
32.45
32.90
33.38
33.58
33.24
32.25
30.70
28.86
27.09
25.63
24.51
23.55
22.51
21.22
19.69
18.13
16.80
15.87
15.36
15.12
14.96
14.75
14.37
13.80
12.97
11.79
10.13
7.93
5.23
2.26
-0.63
-3.09
-4.89
-6.04
-6.82
-7.63
-8.81
-10.55
-12.75
-15.14
-17.41
-19.39
-21.07
-22.66
-24.41
-26.55
-29.23
-32.46
-36.07
-39.76
-43.04
-45.29
-45.89
-44.34
-40.48
-34.52
-27.04
-18.80
-10.56
-2.88
3.94
9.81
14.76
18.86
22.16
24.71
26.57
27.81
28.55
28.90
29.02
29.01
28.95
28.87
28.72
28.44
28.01
27.43
26.78
26.14
25.55
24.92
24.14
23.03
21.56
19.82
18.01
16.35
14.99
13.86
12.78
11.53
10.01
8.30
6.65
5.33
4.47
3.99
3.64
3.08
2.11
0.70
-0.98
-2.68
-4.20
-5.51
-6.72
-8.05
-9.69
-11.73
-14.05
-16.45
-18.70
-20.65
-22.33
-23.90
-25.60
-27.70
-30.41
-33.81
-37.84
-42.19
-46.28
-49.32
-50.51
-49.19
-45.15
-38.70
-30.56
-21.67
-12.94
-4.98
1.95
7.90
13.12
17.80
22.06
25.76
28.71
30.69
31.69
31.91
31.75
31.60
31.72
32.14
32.73
33.25
33.54
33.52
33.13
32.32
31.10
29.52
27.74
25.98
24.41
23.07
21.84
20.53
18.96
17.10
15.04
12.96
11.01
9.22
7.58
5.92
4.10
1.98
-0.54
-3.42
-6.49
-9.48
-12.11
-14.22
-15.81
-17.06
-18.23
-19.55
-21.13
-22.92
-24.78
-26.61
-28.41
-30.29
-32.38
-34.72
-37.12
-39.18
-40.41
-40.34
-38.72
-35.55
-31.05
-25.55
-19.49
-13.21
-7.01
-1.14
4.23
8.91
12.70
15.42
16.97
17.44
17.09
16.39
15.78
15.57
15.85
16.44
17.10
17.61
17.89
18.01
18.05
18.09
18.08
17.94
17.57
16.90
15.98
14.89
13.76
12.69
11.67
10.63
9.43
8.00
6.35
4.58
2.83
1.17
-0.42
-2.00
-3.67
-5.48
-7.37
-9.23
-10.88
-12.18
-13.09
-13.68
-14.14
-14.73
-15.59
-16.79
-18.20
-19.69
-21.16
-22.72
-24.57
-26.91
-29.72
-32.68
-35.24
-36.81
-37.00
-35.70
-33.10
-29.52
-25.23
-20.39
-15.08
-9.40
-3.56
2.11
7.25
11.60
15.06
17.73
19.84
21.63
23.23
24.64
25.75
26.44
26.60
26.25
25.50
24.51
23.42
22.32
21.28
20.30
19.41
18.62
17.97
17.50
17.19
17.01
16.87
16.64
16.21
15.45
14.32
12.82
10.94
8.73
6.24
3.60
0.99
-1.41
-3.41
-4.99
-6.22
-7.33
-8.55
-9.99
-11.67
-13.47
-15.26
-16.98
-18.64
-20.35
-22.17
-24.08
-26.01
-27.81
-29.43
-30.91
-32.45
-34.31
-36.63
-39.34
-42.05
-44.16
-45.03
-44.21
-41.57
-37.31
-31.84
-25.59
-18.86
-11.86
-4.76
2.18
8.62
14.17
18.57
21.77
23.91
25.29
26.21
26.87
27.37
27.71
27.88
27.93
27.92
27.96
28.06
28.16
28.11
27.75
26.99
25.85
24.47
22.99
21.56
20.25
19.05
17.89
16.65
15.25
13.66
11.92
10.20
8.68
7.54
6.79
6.31
5.87
5.25
4.36
3.26
2.10
1.00
-0.06
-1.27
-2.85
-4.94
-7.48
-10.23
-12.94
-15.44
-17.69
-19.80
-21.86
-23.92
-25.98
-28.06
-30.25
-32.67
-35.43
-38.42
-41.36
-43.74
-45.01
-44.75
-42.71
-38.94
-33.73
-27.54
-20.94
-14.48
-8.57
-3.46
0.79
4.27
7.10
9.43
11.34
12.97
14.45
15.96
17.56
19.21
20.70
21.79
22.30
22.25
21.86
21.48
21.42
21.75
22.34
22.88
23.08
22.78
22.03
21.03
19.98
19.01
18.12
17.27
16.42
15.59
14.85
14.23
13.65
12.97
12.00
10.64
8.91
6.93
4.87
2.81
0.71
-1.53
-4.06
-6.92
-10.04
-13.21
-16.20
-18.80
-20.94
-22.70
-24.27
-25.84
-27.52
-29.23
-30.74
-31.66
-31.63
-30.41
-27.89
-24.15
-19.42
-13.96
-8.11
-2.18
3.53
8.70
13.05
16.34
18.39
19.18
18.87
17.82
16.51
15.34
14.55
14.17
14.08
14.17
14.40
14.81
15.39
16.05
16.54
16.57
15.96
14.76
13.20
11.64
10.33
9.33
8.56
7.79
6.85
5.66
4.28
2.83
1.43
0.15
-1.04
-2.18
-3.33
-4.54
-5.77
-7.04
-8.34
-9.70
-11.16
-12.78
-14.57
-16.56
-18.77
-21.23
-23.99
-27.09
-30.60
-34.48
-38.67
-42.91
-46.78
-49.72
-51.09
-50.43
-47.56
-42.65
-36.20
-28.83
-21.18
-13.66
-6.50
0.24
6.51
12.26
17.33
21.61
25.06
27.74
29.79
31.32
32.39
32.97
33.03
32.59
31.82
31.00
30.39
30.12
30.14
30.20
30.05
29.55
28.74
27.81
26.97
26.28
25.62
24.79
23.59
21.98
20.10
18.20
16.48
15.00
13.58
12.00
10.08
7.83
5.44
3.19
1.31
-0.20
-1.54
-3.05
-4.99
-7.45
-10.36
-13.50
-16.68
-19.79
-22.83
-25.81
-28.69
-31.37
-33.75
-35.85
-37.85
-40.04
-42.64
-45.64
-48.68
-51.14
-52.30
-51.62
-48.86
-44.13
-37.79
-30.32
-22.22
-13.91
-5.74
2.01
9.12
15.35
20.55
24.62
27.62
29.74
31.26
32.47
33.48
34.23
34.54
34.21
33.25
31.89
30.54
29.57
29.15
29.15
29.20
28.94
28.13
26.82
25.24
23.71
22.42
21.41
20.49
19.45
18.10
16.43
14.62
12.91
11.54
10.55
9.83
9.10
8.13
6.77
5.04
3.09
1.09
-0.90
-2.85
-4.82
-6.84
-8.87
-10.85
-12.73
-14.55
-16.40
-18.38
-20.57
-22.93
-25.36
-27.76
-30.06
-32.36
-34.88
-37.80
-41.13
-44.56
-47.46
-49.02
-48.52
-45.59
-40.31
-33.22
-25.04
-16.53
-8.30
-0.74
5.91
11.50
15.97
19.34
21.71
23.30
24.38
25.22
26.03
26.82
27.51
27.96
28.06
27.87
27.56
27.33
27.32
27.43
27.42
26.91
25.67
23.65
21.09
18.37
15.90
13.94
12.52
11.50
10.65
9.83
8.98
8.14
7.38
6.72
6.10
5.44
4.68
3.85
3.05
2.32
1.69
1.05
0.24
-0.90
-2.43
-4.33
-6.46
-8.67
-10.85
-12.96
-15.08
-17.34
-19.84
-22.63
-25.65
-28.77
-31.87
-34.84
-37.58
-39.95
-41.65
-42.28
-41.39
-38.71
-34.25
-28.34
-21.57
-14.54
-7.72
-1.37
4.42
9.63
14.19
17.93
20.62
22.16
22.58
22.21
21.48
20.87
20.65
20.85
21.30
21.72
21.91
21.86
21.74
21.76
22.06
22.57
23.04
23.13
22.59
21.41
19.83
18.19
16.79
15.72
14.83
13.84
12.50
10.77
8.85
7.08
5.68
4.76
4.14
3.51
2.60
1.27
-0.41
-2.27
-4.12
-5.87
-7.57
-9.35
-11.32
-13.50
-15.82
-18.14
-20.35
-22.36
-24.19
-25.94
-27.72
-29.63
-31.73
-34.03
-36.49
-39.02
-41.46
-43.57
-44.99
-45.28
-44.04
-41.01
-36.18
-29.84
-22.48
-14.68
-6.92
0.44
7.21
13.26
18.47
22.75
26.07
28.46
30.10
31.15
31.82
32.23
32.48
32.63
32.69
32.62
32.33
31.70
30.60
28.98
26.94
24.66
22.35
20.17
18.13
16.20
14.36
12.66
11.23
10.18
9.52
9.11
8.77
8.36
7.84
7.29
6.82
6.43
5.97
5.25
4.06
2.36
0.24
-2.12
-4.53
-6.86
-9.05
-11.10
-12.98
-14.67
-16.16
-17.49
-18.76
-20.16
-21.86
-23.92
-26.26
-28.66
-30.85
-32.74
-34.42
-36.23
-38.51
-41.42
-44.77
-47.98
-50.34
-51.19
-50.17
-47.35
-43.04
-37.68
-31.66
-25.24
-18.62
-11.98
-5.56
0.38
5.57
9.83
13.11
15.52
17.29
18.66
19.86
20.99
22.05
23.00
23.79
24.40
24.84
25.15
25.35
25.45
25.45
25.40
25.32
25.26
25.20
25.05
24.67
23.93
22.78
21.26
19.47
17.57
15.71
14.00
12.53
11.33
10.36
9.54
8.78
7.98
7.07
6.01
4.78
3.38
1.82
0.14
-1.53
-3.10
-4.52
-5.85
-7.22
-8.78
-10.61
-12.70
-14.92
-17.10
-19.15
-21.02
-22.80
-24.69
-26.89
-29.60
-32.82
-36.34
-39.63
-42.02
-42.85
-41.67
-38.42
-33.41
-27.19
-20.39
-13.54
-7.03
-1.10
4.11
8.48
11.99
14.65
16.60
18.01
19.08
19.94
20.62
21.05
21.18
21.02
20.71
20.46
20.52
21.00
21.85
22.78
23.42
23.46
22.76
21.45
19.86
18.33
17.13
16.28
15.59
14.80
13.70
12.30
10.73
9.22
7.92
6.82
5.85
4.85
3.72
2.45
1.01
-0.63
-2.60
-5.00
-7.92
-11.27
-14.82
-18.35
-21.65
-24.65
-27.44
-30.19
-33.08
-36.25
-39.75
-43.55
-47.51
-51.39
-54.84
-57.43
-58.67
-58.13
-55.56
-50.98
-44.69
-37.26
-29.32
-21.42
-13.91
-6.92
-0.47
5.46
10.78
15.35
19.03
21.73
23.52
24.59
25.21
25.62
25.97
26.31
26.59
26.64
26.34
25.64
24.62
23.55
22.79
22.68
23.39
24.82
26.62
28.26
29.30
29.46
28.76
27.45
25.80
24.06
22.37
20.78
19.38
18.26
17.52
17.10
16.75
16.05
14.57
12.01
8.41
4.05
-0.64
-5.24
-9.50
-13.34
-16.79
-19.90
-22.70
-25.19
-27.38
-29.32
-31.10
-32.93
-35.03
-37.68
-41.06
-45.16
-49.60
-53.69
-56.52
-57.24
-55.33
-50.72
-43.79
-35.22
-25.74
-16.02
-6.60
2.13
9.84
16.34
21.52
25.45
28.30
30.37
31.92
33.14
34.13
34.83
35.23
35.30
35.16
34.98
34.96
35.22
35.72
36.36
37.00
37.56
38.00
38.33
38.43
38.10
37.11
35.31
32.73
29.62
26.31
23.12
20.22
17.61
15.22
12.99
10.90
9.04
7.45
6.12
4.95
3.80
2.56
1.20
-0.23
-1.63
-2.92
-4.07
-5.12
-6.16
-7.30
-8.66
-10.32
-12.30
-14.57
-17.04
-19.64
-22.36
-25.32
-28.71
-32.66
-37.13
-41.75
-45.84
-48.60
-49.35
-47.74
-43.87
-38.17
-31.23
-23.67
-15.95
-8.44
-1.40
4.97
10.50
15.04
18.55
21.05
22.67
23.57
23.95
23.96
23.77
23.46
23.16
22.93
22.85
22.92
23.10
23.32
23.49
23.57
23.51
23.32
23.01
22.59
22.06
21.39
20.54
19.49
18.22
16.73
15.09
13.36
11.61
9.89
8.22
6.60
5.07
3.69
2.49
1.43
0.34
-0.99
-2.75
-4.95
-7.40
-9.80
-11.88
-13.55
-15.01
-16.64
-18.87
-21.93
-25.73
-29.84
-33.65
-36.58
-38.24
-38.52
-37.49
-35.27
-31.94
-27.53
-22.17
-16.14
-9.91
-3.95
1.37
5.96
9.89
13.29
16.20
18.43
19.75
20.00
19.26
17.92
16.51
15.49
15.15
15.44
16.05
16.60
16.73
16.38
15.66
14.82
14.05
13.36
12.53
11.29
9.48
7.16
4.58
2.07
-0.13
-2.02
-3.78
-5.61
-7.65
-9.84
-11.95
-13.71
-14.93
-15.65
-16.05
-16.40
-16.97
-17.90
-19.25
-21.01
-23.16
-25.63
-28.30
-30.93
-33.14
-34.52
-34.62
-33.13
-29.94
-25.18
-19.22
-12.65
-6.15
-0.29
4.57
8.37
11.24
13.36
14.85
15.75
16.09
15.96
15.61
15.32
15.32
15.68
16.25
16.80
17.11
17.12
16.88
16.55
16.18
15.74
15.07
13.99
12.44
10.50
8.37
6.33
4.53
3.00
1.62
0.17
-1.46
-3.26
-5.10
-6.77
-8.16
-9.32
-10.48
-11.98
-14.06
-16.79
-20.01
-23.38
-26.44
-28.74
-29.89
-29.61
-27.81
-24.56
-20.11
-14.85
-9.17
-3.45
2.01
7.01
11.42
15.19
18.31
20.81
22.77
24.29
25.43
26.19
26.54
26.42
25.84
24.84
23.61
22.33
21.19
20.24
19.38
18.41
17.12
15.40
13.32
11.04
8.80
6.71
4.81
2.99
1.10
-0.93
-3.13
-5.44
-7.85
-10.34
-12.98
-15.85
-18.99
-22.41
-26.00
-29.64
-33.15
-36.34
-38.99
-40.79
-41.38
-40.41
-37.65
-33.10
-27.02
-19.90
-12.32
-4.81
2.22
8.49
13.86
18.23
21.59
23.94
25.38
26.07
26.18
25.82
25.09
24.01
22.65
21.10
19.49
17.97
16.57
15.22
13.80
12.22
10.46
8.59
6.68
4.75
2.75
0.57
-1.77
-4.19
-6.50
-8.55
-10.32
-11.87
-13.35
-14.82
-16.28
-17.74
-19.28
-21.15
-23.67
-27.05
-31.17
-35.56
-39.44
-42.07
-42.90
-41.79
-38.95
-34.75
-29.52
-23.49
-16.79
-9.57
-2.11
5.26
12.17
18.33
23.57
27.83
31.16
33.62
35.31
36.34
36.86
37.02
36.95
36.77
36.53
36.24
35.88
35.49
35.18
35.11
35.36
35.87
36.35
36.38
35.59
33.87
31.52
29.12
27.24
26.10
25.24
24.00
21.45
17.06
11.01
4.19
-2.19
-7.14
-10.32
-12.19
-13.19
-13.84
-14.30
-14.27
-13.16
-10.24
-4.82
3.30
12.90
21.90
26.58
22.83
8.01
-17.53
-49.83
-82.08
-106.58
-117.84
-111.65
-88.41
-51.92
-8.20
35.73
72.94
97.40
104.78
91.51
60.92
17.87
-30.13
-74.32
-106.64
-121.23
-115.27
-88.98
-48.29
4.77
63.29
119.24
164.82
193.92
203.50
194.04
168.45
126.53
74.68
14.06
-54.30
-127.41
-199.20
-261.24
-304.94
-300.93
-277.16
-232.99
-175.09
-111.35
-49.59
3.24
41.46
61.51
62.77
44.19
14.85
-19.96
-56.90
-94.79
-133.39
-170.34
-199.72
-213.07
-205.84
-173.03
-120.35
-59.59
-4.33
35.10
54.86
57.73
50.06
35.91
19.86
1.17
-21.99
-49.66
-78.20
-100.55
-108.94
-98.00
-67.89
-21.64
33.95
91.39
143.91
185.65
211.71
218.46
204.51
172.41
130.01
88.04
57.34
46.01
58.04
93.04
147.08
213.12
281.35
340.04
377.23
383.55
354.75
293.01
206.77
109.05
15.35
-59.10
-102.63
-110.45
-86.91
-44.95
-2.32
24.54
25.94
1.06
-44.03
-100.77
-161.93
-222.40
-277.88
-323.11
-351.83
-359.01
-343.53
-309.34
-263.67
-213.83
-164.12
-115.35
-66.89
-19.45
23.11
54.59
69.28
65.12
45.33
17.62
-8.74
-26.32
-31.98
-27.40
-17.35
-7.22
-0.74
1.14
-0.09
-1.73
-1.21
3.01
11.22
22.83
36.94
52.51
68.34
82.89
94.34
100.87
101.27
95.37
84.25
69.92
54.82
41.05
29.96
21.95
16.65
13.32
11.27
10.12
9.79
10.34
11.75
13.81
16.13
18.26
19.82
20.61
20.67
20.21
19.59
19.14
19.12
19.52
20.13
20.52
20.24
19.03
16.91
14.27
11.62
9.44
7.95
7.08
6.46
5.63
4.20
2.06
-0.70
-3.78
-6.81
-9.52
-11.78
-13.59
-15.07
-16.43
-17.82
-19.35
-20.97
-22.46
-23.44
-23.49
-22.23
-19.40
-14.96
-9.09
-2.21
5.17
12.48
19.26
25.14
29.87
33.29
35.29
35.84
35.08
33.37
31.18
29.04
27.33
26.13
25.32
24.66
23.94
23.05
22.04
21.05
20.15
19.43
18.88
18.48
18.19
17.91
17.50
16.87
15.94
14.75
13.40
11.99
10.60
9.20
7.76
6.29
4.86
3.62
2.67
2.00
1.52
1.08
0.57
-0.04
-0.70
-1.37
-2.10
-3.02
-4.31
-6.06
-8.18
-10.47
-12.64
-14.56
-16.23
-17.84
-19.57
-21.49
-23.41
-25.00
-25.91
-25.93
-25.08
-23.53
-21.51
-19.14
-16.42
-13.26
-9.66
-5.73
-1.76
1.91
4.98
7.26
8.72
9.45
9.59
9.26
8.57
7.61
6.53
5.52
4.78
4.48
4.67
5.25
6.05
6.81
7.35
7.56
7.43
6.99
6.30
5.41
4.40
3.40
2.53
1.90
1.50
1.25
1.00
0.63
0.07
-0.69
-1.63
-2.69
-3.86
-5.10
-6.40
-7.73
-9.08
-10.44
-11.80
-13.12
-14.31
-15.26
-15.91
-16.27
-16.53
-16.91
-17.66
-18.89
-20.51
-22.27
-23.80
-24.79
-25.02
-24.43
-23.03
-20.88
-18.01
-14.42
-10.18
-5.46
-0.55
4.19
8.44
12.01
14.86
17.05
18.65
19.69
20.20
20.17
19.73
19.08
18.53
18.32
18.59
19.32
20.32
21.37
22.28
22.96
23.38
23.57
23.56
23.36
22.93
22.24
21.32
20.26
19.17
18.16
17.26
16.43
15.54
14.48
13.20
11.72
10.08
8.35
6.55
4.68
2.72
0.70
-1.29
-3.14
-4.75
-6.06
-7.08
-7.93
-8.80
-9.90
-11.43
-13.47
-15.95
-18.70
-21.45
-23.96
-26.02
-27.48
-28.22
-28.07
-26.89
-24.62
-21.31
-17.16
-12.54
-7.84
-3.42
0.48
3.76
6.42
8.51
10.10
11.22
11.92
12.31
12.49
12.65
12.90
13.32
13.90
14.60
15.44
16.48
17.81
19.51
21.53
23.67
25.69
27.35
28.54
29.36
30.03
30.91
32.30
34.38
37.15
40.36
43.67
46.70
49.29
51.56
53.94
57.05
61.41
67.23
74.30
82.08
90.03
97.90
105.96
114.83
125.25
137.62
151.74
166.91
182.19
196.88
210.77
224.27
238.14
253.29
270.68
291.14
315.15
342.23
370.42
396.09
414.56
421.44
414.17
392.89
360.33
320.63
277.85
234.85
193.06
152.98
114.78
78.66
44.68
12.46
-18.89
-50.43
-82.85
-116.01
-149.04
-180.67
-209.87
-236.30
-260.56
-284.00
-308.43
-335.61
-366.49
-400.41
-434.66
-464.80
-485.83
-493.95
-487.96
-469.71
-443.22
-413.10
-382.89
-354.35
-327.72
-302.67
-279.16
-257.60
-238.48
-221.83
-206.94
-192.66
-178.03
-162.77
-147.41
-133.00
-120.60
-110.72
-103.16
-97.04
-91.26
-84.86
-77.40
-68.95
-59.97
-50.92
-42.10
-33.56
-25.19
-16.90
-8.82
-1.24
5.41
10.79
14.79
17.59
19.52
21.00
22.25
23.37
24.25
24.79
24.97
24.88
24.73
24.75
25.10
25.83
26.83
27.89
28.76
29.24
29.16
28.50
27.29
25.61
23.61
21.45
19.40
17.69
16.47
15.67
15.06
14.33
13.30
12.01
10.66
9.44
8.38
7.32
6.07
4.57
2.99
1.64
0.69
0.08
-0.51
-1.46
-2.98
-5.01
-7.30
-9.55
-11.59
-13.31
-14.67
-15.51
-15.63
-14.83
-13.02
-10.28
-6.77
-2.68
1.79
6.45
11.07
15.36
19.01
21.85
23.85
25.19
26.11
26.90
27.69
28.52
29.23
29.63
29.57
29.06
28.32
27.76
27.77
28.61
30.24
32.36
34.55
36.42
37.81
38.69
39.12
39.17
38.88
38.33
37.69
37.23
37.19
37.66
38.46
39.24
39.59
39.23
38.15
36.56
34.71
32.77
30.63
28.00
24.51
19.90
14.15
7.57
0.65
-6.00
-11.87
-16.65
-20.34
-23.21
-25.74
-28.39
-31.55
-35.35
-39.68
-44.24
-48.59
-52.29
-54.95
-56.33
-56.32
-55.01
-52.71
-49.83
-46.83
-44.02
-41.51
-39.26
-37.12
-34.93
-32.67
-30.43
-28.36
-26.61
-25.25
-24.22
-23.36
-22.45
-21.33
-19.92
-18.30
-16.57
-14.84
-13.10
-11.25
-9.16
-6.80
-4.30
-1.90
0.16
1.77
3.01
4.10
5.26
6.58
7.96
9.21
10.17
10.81
11.29
11.89
12.88
14.38
16.29
18.29
20.00
21.06
21.36
20.97
20.14
19.14
18.14
17.15
16.03
14.58
12.64
10.10
6.97
3.37
-0.49
-4.26
-7.58
-10.06
-11.37
-11.33
-9.90
-7.25
-3.71
0.27
4.24
7.92
11.29
14.53
17.88
21.41
24.89
27.88
29.93
30.88
31.01
30.86
30.98
31.61
32.57
33.40
33.69
33.28
32.35
31.24
30.21
29.30
28.32
27.08
25.51
23.80
22.21
20.94
20.00
19.17
18.14
16.71
14.90
12.92
11.01
9.38
8.07
6.98
5.93
4.79
3.48
1.98
0.34
-1.38
-3.08
-4.69
-6.15
-7.46
-8.68
-9.85
-11.04
-12.27
-13.51
-14.71
-15.82
-16.76
-17.38
-17.48
-16.82
-15.26
-12.75
-9.51
-5.85
-2.19
1.09
3.82
5.97
7.61
8.86
9.78
10.36
10.58
10.45
10.08
9.64
9.25
8.95
8.68
8.30
7.74
7.13
6.73
6.84
7.60
8.91
10.42
11.67
12.31
12.22
11.55
10.56
9.50
8.50
7.53
6.49
5.32
4.08
2.99
2.29
2.10
2.41
2.93
3.27
3.10
2.28
0.98
-0.48
-1.76
-2.70
-3.39
-4.07
-4.97
-6.17
-7.60
-9.09
-10.55
-11.97
-13.43
-14.98
-16.51
-17.70
-18.13
-17.38
-15.25
-11.80
-7.43
-2.73
1.64
5.19
7.65
9.06
9.65
9.74
9.60
9.41
9.22
9.02
8.74
8.34
7.85
7.38
7.07
7.01
7.25
7.70
8.31
9.05
9.92
10.91
11.86
12.45
12.34
11.41
9.87
8.24
7.10
6.77
7.17
7.88
8.39
8.37
7.79
6.82
5.72
4.66
3.64
2.60
1.46
0.21
-1.07
-2.29
-3.38
-4.28
-5.07
-5.88
-6.83
-8.00
-9.36
-10.79
-12.16
-13.38
-14.46
-15.46
-16.40
-17.22
-17.76
-17.77
-17.01
-15.30
-12.60
-9.06
-4.97
-0.75
3.22
6.67
9.49
11.74
13.51
14.86
15.77
16.21
16.21
15.90
15.51
15.25
15.22
15.39
15.64
15.79
15.79
15.66
15.48
15.33
15.18
14.92
14.39
13.48
12.25
10.90
9.67
8.74
8.09
7.53
6.79
5.71
4.30
2.75
1.31
0.17
-0.63
-1.16
-1.57
-2.00
-2.55
-3.23
-4.03
-4.92
-5.89
-6.96
-8.18
-9.57
-11.10
-12.69
-14.27
-15.80
-17.32
-18.98
-20.85
-22.84
-24.64
-25.76
-25.73
-24.27
-21.41
-17.46
-12.92
-8.23
-3.75
0.34
3.96
7.09
9.67
11.67
13.03
13.78
14.04
13.99
13.85
13.77
13.85
14.06
14.33
14.57
14.76
14.95
15.19
15.49
15.80
16.01
15.96
15.58
14.88
13.97
13.00
12.07
11.22
10.38
9.45
8.38
7.23
6.08
5.04
4.12
3.22
2.21
0.98
-0.47
-1.99
-3.42
-4.62
-5.57
-6.35
-7.12
-8.01
-9.07
-10.29
-11.65
-13.15
-14.87
-16.94
-19.43
-22.26
-25.16
-27.74
-29.55
-30.29
-29.81
-28.20
-25.67
-22.46
-18.80
-14.86
-10.78
-6.71
-2.75
1.00
4.49
7.66
10.44
12.76
14.52
15.71
16.38
16.63
16.63
16.55
16.55
16.74
17.20
17.89
18.67
19.32
19.61
19.40
18.65
17.50
16.15
14.81
13.61
12.58
11.66
10.76
9.78
8.68
7.43
6.06
4.61
3.11
1.53
-0.08
-1.70
-3.17
-4.33
-5.03
-5.28
-5.30
-5.44
-6.12
-7.51
-9.57
-12.00
-14.42
-16.50
-18.11
-19.25
-20.06
-20.71
-21.35
-22.07
-22.91
-23.72
-24.28
-24.22
-23.19
-21.01
-17.66
-13.39
-8.55
-3.53
1.28
5.63
9.31
12.21
14.33
15.76
16.70
17.32
17.79
18.17
18.48
18.70
18.83
18.91
18.95
18.94
18.82
18.56
18.18
17.75
17.38
17.13
16.97
16.73
16.20
15.20
13.68
11.76
9.68
7.67
5.94
4.55
3.46
2.56
1.72
0.84
-0.17
-1.30
-2.55
-3.83
-5.04
-6.10
-7.01
-7.81
-8.59
-9.48
-10.60
-12.07
-13.97
-16.26
-18.77
-21.20
-23.17
-24.41
-24.86
-24.72
-24.35
-24.08
-24.05
-24.18
-24.14
-23.53
-21.97
-19.26
-15.43
-10.77
-5.71
-0.69
3.93
7.99
11.52
14.60
17.22
19.32
20.76
21.44
21.41
20.85
20.00
19.09
18.30
17.70
17.36
17.24
17.26
17.30
17.25
17.01
16.52
15.79
14.83
13.71
12.52
11.42
10.51
9.86
9.39
8.90
8.21
7.19
5.90
4.48
3.13
1.99
1.09
0.39
-0.23
-0.88
-1.65
-2.60
-3.71
-4.97
-6.33
-7.77
-9.25
-10.77
-12.28
-13.66
-14.81
-15.68
-16.32
-16.93
-17.74
-18.93
-20.49
-22.23
-23.81
-24.92
-25.27
-24.67
-23.06
-20.44
-16.88
-12.55
-7.70
-2.70
2.08
6.30
9.76
12.41
14.41
15.92
17.15
18.13
18.82
19.12
18.99
18.52
17.90
17.37
17.09
17.12
17.35
17.66
17.89
17.92
17.65
17.04
16.02
14.64
12.94
11.03
9.05
7.09
5.27
3.66
2.31
1.18
0.17
-0.87
-2.10
-3.56
-5.23
-6.98
-8.68
-10.29
-11.79
-13.25
-14.74
-16.31
-17.99
-19.77
-21.61
-23.42
-25.15
-26.78
-28.36
-29.97
-31.56
-32.96
-33.91
-34.09
-33.33
-31.59
-28.97
-25.64
-21.70
-17.24
-12.36
-7.24
-2.21
2.41
6.34
9.50
11.97
13.88
15.35
16.42
17.07
17.29
17.14
16.75
16.32
16.04
16.00
16.22
16.55
16.80
16.78
16.37
15.59
14.53
13.35
12.19
11.12
10.14
9.21
8.26
7.26
6.18
5.05
3.86
2.61
1.30
-0.08
-1.52
-2.92
-4.16
-5.14
-5.82
-6.37
-7.03
-8.10
-9.73
-11.85
-14.20
-16.42
-18.31
-19.87
-21.31
-22.83
-24.50
-26.15
-27.39
-27.83
-27.19
-25.39
-22.53
-18.82
-14.49
-9.77
-4.85
0.07
4.79
9.12
12.90
15.99
18.35
19.97
20.93
21.33
21.29
20.89
20.23
19.39
18.52
17.74
17.19
16.91
16.86
16.93
17.00
16.96
16.77
16.41
15.86
15.08
14.03
12.69
11.11
9.38
7.63
5.97
4.47
3.12
1.83
0.53
-0.81
-2.19
-3.56
-4.87
-6.10
-7.31
-8.58
-9.98
-11.55
-13.27
-15.04
-16.74
-18.26
-19.55
-20.69
-21.82
-23.15
-24.77
-26.61
-28.45
-29.87
-30.41
-29.73
-27.67
-24.28
-19.87
-14.83
-9.55
-4.38
0.44
4.75
8.46
11.51
13.85
15.51
16.52
17.00
17.08
16.87
16.50
16.03
15.52
15.06
14.71
14.51
14.47
14.53
14.60
14.60
14.43
14.03
13.35
12.33
10.99
9.36
7.56
5.71
3.93
2.28
0.78
-0.57
-1.80
-2.95
-4.08
-5.31
-6.73
-8.36
-10.15
-11.95
-13.59
-15.00
-16.17
-17.21
-18.25
-19.45
-20.89
-22.58
-24.38
-26.00
-27.05
-27.12
-25.89
-23.24
-19.23
-14.10
-8.24
-2.12
3.71
8.76
12.65
15.29
16.88
17.79
18.42
18.96
19.39
19.50
19.15
18.35
17.31
16.32
15.59
15.17
14.93
14.66
14.20
13.48
12.58
11.62
10.68
9.75
8.76
7.58
6.16
4.53
2.80
1.12
-0.42
-1.82
-3.17
-4.58
-6.15
-7.90
-9.76
-11.66
-13.48
-15.20
-16.85
-18.56
-20.40
-22.36
-24.34
-26.09
-27.36
-27.91
-27.56
-26.24
-23.89
-20.51
-16.13
-10.90
-5.06
0.99
6.83
12.04
16.33
19.55
21.69
22.79
22.96
22.38
21.23
19.73
18.14
16.63
15.41
14.59
14.20
14.17
14.34
14.47
14.29
13.65
12.51
10.94
9.11
7.11
5.02
2.87
0.68
-1.47
-3.44
-5.16
-6.60
-7.81
-8.92
-10.03
-11.24
-12.60
-14.11
-15.81
-17.73
-19.89
-22.27
-24.71
-26.94
-28.53
-29.00
-27.93
-25.16
-20.81
-15.25
-9.02
-2.65
3.44
9.01
13.93
18.13
21.52
23.98
25.38
25.69
25.05
23.77
22.29
21.03
20.16
19.64
19.18
18.48
17.38
15.92
14.27
12.62
11.01
9.35
7.53
5.45
3.14
0.70
-1.78
-4.22
-6.57
-8.85
-11.06
-13.22
-15.34
-17.39
-19.34
-21.18
-22.90
-24.56
-26.27
-28.07
-29.83
-31.24
-31.85
-31.20
-29.02
-25.32
-20.41
-14.76
-8.84
-3.05
2.38
7.36
11.82
15.69
18.86
21.22
22.75
23.54
23.79
23.77
23.67
23.59
23.46
23.17
22.65
21.89
20.93
19.84
18.62
17.20
15.49
13.45
11.12
8.65
6.21
3.93
1.86
-0.04
-1.85
-3.62
-5.35
-7.00
-8.52
-9.93
-11.35
-12.97
-14.94
-17.27
-19.78
-22.06
-23.64
-24.02
-22.90
-20.16
-15.93
-10.54
-4.42
1.96
8.18
13.90
18.91
23.05
26.23
28.37
29.50
29.68
29.10
28.02
26.72
25.44
24.30
23.36
22.58
21.92
21.34
20.79
20.23
19.60
18.83
17.86
16.68
15.29
13.75
12.16
10.60
9.16
7.86
6.67
5.57
4.54
3.59
2.75
2.04
1.41
0.76
0.04
-0.80
-1.70
-2.60
-3.41
-4.13
-4.78
-5.41
-6.09
-6.85
-7.75
-8.79
-10.01
-11.37
-12.83
-14.32
-15.77
-17.16
-18.56
-20.05
-21.69
-23.48
-25.33
-27.08
-28.57
-29.57
-29.84
-29.14
-27.27
-24.16
-19.95
-14.93
-9.53
-4.18
0.78
5.13
8.75
11.64
13.80
15.30
16.24
16.76
16.99
17.02
16.92
16.69
16.35
15.91
15.42
14.98
14.65
14.47
14.40
14.33
14.08
13.54
12.67
11.54
10.30
9.09
8.02
7.08
6.22
5.39
4.55
3.71
2.87
2.03
1.16
0.27
-0.60
-1.39
-2.05
-2.56
-2.97
-3.37
-3.82
-4.37
-5.04
-5.81
-6.71
-7.73
-8.84
-9.97
-11.01
-11.87
-12.55
-13.12
-13.69
-14.34
-15.03
-15.65
-16.06
-16.25
-16.37
-16.71
-17.51
-18.88
-20.64
-22.43
-23.83
-24.50
-24.24
-22.99
-20.84
-17.93
-14.45
-10.69
-6.93
-3.44
-0.41
2.06
4.00
5.48
6.58
7.41
8.05
8.57
8.98
9.23
9.25
9.00
8.50
7.91
7.38
7.12
7.20
7.62
8.24
8.86
9.30
9.43
9.24
8.79
8.20
7.58
6.99
6.43
5.87
5.31
4.77
4.25
3.71
3.09
2.28
1.25
0.05
-1.20
-2.35
-3.30
-4.03
-4.55
-4.97
-5.34
-5.70
-6.04
-6.36
-6.65
-6.93
-7.24
-7.64
-8.13
-8.70
-9.27
-9.78
-10.25
-10.73
-11.36
-12.17
-13.16
-14.19
-15.15
-15.95
-16.59
-17.08
-17.35
-17.25
-16.60
-15.27
-13.27
-10.77
-8.07
-5.43
-3.02
-0.90
0.96
2.64
4.21
5.66
6.95
8.00
8.72
9.06
9.04
8.82
8.58
8.53
8.77
9.27
9.91
10.52
10.94
11.14
11.14
10.98
10.69
10.24
9.57
8.62
7.42
6.09
4.81
3.80
3.13
2.76
2.54
2.25
1.77
1.10
0.39
-0.20
-0.59
-0.78
-0.89
-1.04
-1.29
-1.66
-2.16
-2.77
-3.53
-4.46
-5.58
-6.82
-8.15
-9.47
-10.74
-11.90
-12.94
-13.87
-14.69
-15.45
-16.16
-16.87
-17.59
-18.36
-19.21
-20.09
-20.94
-21.62
-21.94
-21.70
-20.81
-19.23
-17.03
-14.38
-11.46
-8.45
-5.50
-2.71
-0.09
2.32
4.52
6.46
8.02
9.15
9.80
10.04
10.00
9.84
9.70
9.70
9.87
10.24
10.78
11.42
12.07
12.62
12.95
13.02
12.83
12.42
11.84
11.14
10.34
9.48
8.59
7.69
6.81
5.91
4.96
3.96
2.95
2.05
1.37
0.98
0.87
0.91
0.98
1.01
1.00
1.02
1.13
1.30
1.42
1.34
0.97
0.29
-0.65
-1.74
-2.90
-4.09
-5.35
-6.70
-8.17
-9.76
-11.42
-13.13
-14.85
-16.57
-18.29
-20.05
-21.90
-23.81
-25.65
-27.21
-28.18
-28.31
-27.44
-25.56
-22.72
-19.08
-14.83
-10.20
-5.46
-0.92
3.10
6.39
8.85
10.56
11.71
12.57
13.35
14.15
14.94
15.59
15.97
16.05
15.98
15.96
16.25
16.90
17.85
18.84
19.64
20.12
20.33
20.37
20.33
20.20
19.85
19.16
18.11
16.79
15.39
14.07
12.87
11.78
10.72
9.66
8.64
7.75
7.02
6.46
5.94
5.33
4.50
3.41
2.09
0.70
-0.60
-1.70
-2.58
-3.35
-4.18
-5.24
-6.61
-8.23
-9.97
-11.64
-13.11
-14.33
-15.36
-16.31
-17.37
-18.68
-20.33
-22.27
-24.32
-26.22
-27.65
-28.33
-28.03
-26.57
-23.92
-20.13
-15.45
-10.23
-4.91
0.07
4.36
7.84
10.51
12.51
14.00
15.10
15.87
16.33
16.50
16.47
16.32
16.21
16.27
16.52
16.96
17.47
17.91
18.21
18.31
18.26
18.11
17.89
17.57
17.09
16.43
15.61
14.74
13.93
13.25
12.66
12.04
11.29
10.38
9.37
8.40
7.60
6.97
6.41
5.73
4.79
3.56
2.09
0.58
-0.80
-1.95
-2.83
-3.52
-4.17
-4.92
-5.87
-7.07
-8.44
-9.92
-11.40
-12.82
-14.14
-15.35
-16.51
-17.65
-18.86
-20.19
-21.74
-23.59
-25.76
-28.12
-30.37
-32.02
-32.56
-31.59
-29.02
-25.09
-20.24
-14.99
-9.71
-4.63
0.25
4.90
9.26
13.21
16.54
19.12
20.91
21.95
22.38
22.39
22.18
21.96
21.86
21.93
22.17
22.46
22.70
22.78
22.63
22.17
21.37
20.24
18.85
17.34
15.86
14.52
13.39
12.39
11.44
10.47
9.50
8.60
7.91
7.46
7.24
7.11
6.92
6.54
5.94
5.19
4.43
3.77
3.21
2.69
2.05
1.21
0.14
-1.08
-2.27
-3.32
-4.18
-4.89
-5.55
-6.23
-6.98
-7.81
-8.69
-9.67
-10.78
-12.07
-13.51
-15.03
-16.50
-17.85
-19.08
-20.30
-21.64
-23.22
-24.97
-26.63
-27.82
-28.09
-27.09
-24.69
-21.00
-16.39
-11.37
-6.44
-1.97
1.86
5.09
7.82
10.19
12.23
13.90
15.13
15.92
16.32
16.49
16.55
16.56
16.49
16.33
16.06
15.76
15.54
15.53
15.70
15.95
16.09
15.92
15.37
14.49
13.44
12.37
11.37
10.41
9.40
8.31
7.16
6.09
5.26
4.75
4.49
4.31
3.98
3.37
2.50
1.50
0.51
-0.37
-1.15
-1.89
-2.72
-3.68
-4.77
-5.91
-7.00
-7.96
-8.76
-9.42
-10.03
-10.70
-11.49
-12.48
-13.61
-14.80
-15.97
-17.07
-18.15
-19.27
-20.53
-21.90
-23.28
-24.49
-25.36
-25.74
-25.55
-24.76
-23.27
-21.04
-18.05
-14.36
-10.22
-5.93
-1.82
1.86
4.97
7.51
9.50
11.00
12.01
12.56
12.69
12.46
12.02
11.46
10.88
10.32
9.81
9.38
9.11
9.11
9.42
10.03
10.81
11.55
12.04
12.14
11.81
11.11
10.20
9.25
8.43
7.84
7.47
7.18
6.77
6.05
4.93
3.47
1.91
0.52
-0.47
-0.96
-1.00
-0.75
-0.44
-0.26
-0.37
-0.80
-1.55
-2.54
-3.70
-4.96
-6.29
-7.63
-8.88
-9.96
-10.77
-11.32
-11.72
-12.14
-12.77
-13.72
-15.04
-16.60
-18.24
-19.75
-20.91
-21.55
-21.54
-20.75
-19.17
-16.82
-13.82
-10.39
-6.79
-3.27
-0.04
2.75
5.02
6.70
7.72
8.06
7.77
7.06
6.22
5.63
5.54
6.00
6.86
7.85
8.70
9.23
9.45
9.44
9.31
9.12
8.88
8.55
8.12
7.65
7.20
6.82
6.50
6.19
5.76
5.16
4.35
3.36
2.28
1.18
0.14
-0.79
-1.57
-2.20
-2.65
-2.98
-3.29
-3.73
-4.50
-5.69
-7.30
-9.17
-11.09
-12.81
-14.21
-15.24
-15.96
-16.50
-16.99
-17.54
-18.25
-19.19
-20.37
-21.77
-23.25
-24.65
-25.72
-26.19
-25.79
-24.37
-21.92
-18.62
-14.82
-10.86
-6.98
-3.30
0.17
3.44
6.49
9.26
11.77
14.09
16.31
18.42
20.22
21.36
21.59
20.81
19.31
17.53
15.93
14.77
14.05
13.63
13.34
13.10
12.93
12.85
12.88
13.00
13.10
13.08
12.79
12.16
11.15
9.87
8.54
7.39
6.62
6.25
6.15
6.06
5.77
5.18
4.30
3.23
2.02
0.67
-0.82
-2.46
-4.11
-5.58
-6.63
-7.16
-7.26
-7.23
-7.45
-8.21
-9.55
-11.27
-13.03
-14.51
-15.60
-16.44
-17.33
-18.55
-20.21
-22.22
-24.31
-26.15
-27.57
-28.50
-29.01
-29.11
-28.70
-27.48
-25.12
-21.44
-16.59
-11.01
-5.28
0.11
4.90
9.05
12.61
15.51
17.58
18.65
18.73
18.12
17.33
16.86
17.00
17.71
18.69
19.56
20.04
20.03
19.65
19.08
18.51
18.02
17.57
17.08
16.50
15.88
15.33
14.96
14.78
14.65
14.32
13.56
12.31
10.67
8.79
6.83
4.83
2.78
0.72
-1.18
-2.67
-3.55
-3.79
-3.55
-3.16
-2.91
-3.04
-3.57
-4.46
-5.56
-6.72
-7.86
-8.93
-9.95
-11.01
-12.16
-13.44
-14.86
-16.34
-17.81
-19.26
-20.70
-22.20
-23.76
-25.33
-26.70
-27.54
-27.48
-26.17
-23.43
-19.33
-14.19
-8.48
-2.70
2.74
7.56
11.61
14.80
17.08
18.45
18.99
18.89
18.43
17.84
17.26
16.73
16.26
15.93
15.89
16.30
17.26
18.63
20.08
21.19
21.63
21.31
20.39
19.20
18.07
17.14
16.40
15.66
14.73
13.53
12.09
10.57
9.15
7.94
7.00
6.30
5.74
5.20
4.58
3.81
2.93
1.99
1.09
0.25
-0.52
-1.26
-1.97
-2.59
-3.01
-3.18
-3.13
-3.05
-3.22
-3.89
-5.21
-7.08
-9.29
-11.55
-13.67
-15.57
-17.23
-18.55
-19.35
-19.33
-18.17
-15.73
-12.12
-7.70
-3.02
1.37
5.11
8.04
10.17
11.66
12.69
13.37
13.77
13.90
13.72
13.22
12.47
11.63
10.85
10.23
9.77
9.36
8.85
8.20
7.48
6.88
6.54
6.50
6.58
6.47
5.90
4.80
3.29
1.73
0.48
-0.21
-0.39
-0.35
-0.49
-1.11
-2.27
-3.74
-5.17
-6.25
-6.88
-7.17
-7.37
-7.66
-8.09
-8.58
-9.02
-9.45
-10.09
-11.18
-12.84
-14.88
-16.89
-18.45
-19.37
-19.84
-20.33
-21.31
-22.96
-24.98
-26.75
-27.58
-26.98
-24.81
-21.24
-16.65
-11.45
-5.99
-0.63
4.35
8.73
12.37
15.27
17.51
19.19
20.44
21.36
21.99
22.35
22.40
22.11
21.49
20.61
19.60
18.63
17.85
17.27
16.87
16.52
16.10
15.51
14.75
13.80
12.70
11.48
10.18
8.88
7.65
6.55
5.61
4.79
4.02
3.19
2.23
1.14
-0.04
-1.19
-2.20
-3.01
-3.59
-4.00
-4.32
-4.66
-5.11
-5.76
-6.61
-7.62
-8.72
-9.81
-10.85
-11.82
-12.74
-13.63
-14.49
-15.34
-16.23
-17.27
-18.60
-20.29
-22.26
-24.24
-25.77
-26.37
-25.68
-23.55
-20.10
-15.69
-10.79
-5.90
-1.39
2.55
5.87
8.62
10.88
12.65
13.95
14.72
15.02
14.98
14.74
14.44
14.12
13.74
13.23
12.61
11.94
11.36
10.98
10.77
10.64
10.40
9.89
9.04
7.90
6.59
5.25
3.95
2.75
1.67
0.65
-0.37
-1.46
-2.65
-3.92
-5.21
-6.45
-7.62
-8.74
-9.89
-11.12
-12.41
-13.74
-15.01
-16.19
-17.29
-18.41
-19.63
-20.99
-22.42
-23.75
-24.73
-25.09
-24.63
-23.26
-20.96
-17.83
-14.02
-9.67
-4.96
-0.13
4.54
8.72
12.11
14.59
16.19
17.12
17.62
17.90
18.03
18.02
17.80
17.34
16.71
16.00
15.34
14.74
14.17
13.50
12.59
11.42
10.08
8.78
7.69
6.88
6.27
5.61
4.69
3.41
1.84
0.17
-1.37
-2.67
-3.72
-4.63
-5.50
-6.44
-7.48
-8.63
-9.86
-11.19
-12.62
-14.19
-15.89
-17.64
-19.34
-20.84
-22.04
-22.90
-23.41
-23.54
-23.11
-21.81
-19.27
-15.28
-9.99
-3.93
2.19
7.63
11.95
15.08
17.19
18.57
19.44
19.91
20.01
19.81
19.40
18.95
18.57
18.28
17.97
17.45
16.54
15.19
13.48
11.59
9.74
8.10
6.72
5.58
4.57
3.63
2.72
1.86
1.06
0.31
-0.46
-1.31
-2.30
-3.39
-4.45
-5.28
-5.69
-5.61
-5.14
-4.53
-4.10
-4.10
-4.65
-5.73
-7.19
-8.80
-10.34
-11.61
-12.51
-13.02
-13.29
-13.55
-14.02
-14.84
-15.91
-17.02
-17.85
-18.13
-17.74
-16.63
-14.81
-12.27
-9.01
-5.08
-0.63
4.07
8.67
12.88
16.50
19.41
21.57
22.92
23.43
23.08
21.92
20.17
18.13
16.11
14.38
13.04
12.04
11.20
10.36
9.46
8.58
7.89
7.51
7.46
7.53
7.39
6.72
5.35
3.32
0.89
-1.60
-3.87
-5.78
-7.31
-8.55
-9.58
-10.49
-11.30
-12.05
-12.79
-13.58
-14.42
-15.31
-16.17
-16.95
-17.59
-18.13
-18.66
-19.28
-20.08
-21.10
-22.30
-23.56
-24.75
-25.76
-26.50
-26.91
-26.81
-25.97
-24.12
-21.04
-16.73
-11.46
-5.71
-0.11
4.88
8.99
12.22
14.68
16.55
17.88
18.67
18.87
18.51
17.70
16.64
15.53
14.59
13.94
13.68
13.83
14.32
15.03
15.73
16.22
16.30
15.94
15.17
14.16
13.07
12.02
11.10
10.37
9.81
9.39
9.00
8.47
7.60
6.30
4.59
2.64
0.66
-1.17
-2.79
-4.25
-5.61
-6.97
-8.38
-9.93
-11.74
-13.91
-16.47
-19.27
-22.00
-24.29
-25.81
-26.42
-26.23
-25.43
-24.25
-22.74
-20.84
-18.31
-14.97
-10.80
-5.96
-0.80
4.28
8.96
13.03
16.39
19.07
21.08
22.42
23.09
23.10
22.54
21.63
20.61
19.74
19.19
19.01
19.17
19.53
19.94
20.28
20.44
20.34
19.93
19.16
18.02
16.56
14.89
13.13
11.35
9.57
7.68
5.59
3.22
0.52
-2.41
-5.44
-8.35
-10.86
-12.75
-13.94
-14.64
-15.26
-16.34
-18.32
-21.27
-24.86
-28.43
-31.28
-32.84
-32.88
-31.40
-28.56
-24.57
-19.61
-13.96
-8.01
-2.18
3.19
7.93
12.06
15.66
18.78
21.33
23.19
24.28
24.70
24.68
24.50
24.37
24.31
24.24
24.06
23.68
23.08
22.25
21.16
19.78
18.13
16.29
14.38
12.44
10.45
8.27
5.82
3.15
0.48
-1.93
-3.93
-5.59
-7.19
-9.04
-11.29
-13.86
-16.54
-19.09
-21.47
-23.81
-26.30
-29.08
-32.07
-35.05
-37.70
-39.63
-40.48
-39.92
-37.75
-33.95
-28.78
-22.74
-16.44
-10.39
-4.87
0.06
4.56
8.78
12.79
16.51
19.70
22.08
23.41
23.66
23.01
21.82
20.50
19.30
18.29
17.35
16.33
15.17
13.95
12.82
11.91
11.27
10.85
10.55
10.24
9.81
9.10
7.95
6.30
4.18
1.75
-0.75
-3.06
-5.04
-6.60
-7.71
-8.46
-8.98
-9.43
-10.04
-10.93
-12.14
-13.60
-15.15
-16.66
-18.05
-19.32
-20.47
-21.41
-22.03
-22.14
-21.57
-20.23
-18.03
-14.97
-10.99
-6.08
-0.34
5.99
12.43
18.40
23.32
26.78
28.66
29.16
28.65
27.52
26.08
24.46
22.67
20.67
18.42
15.95
13.35
10.72
8.19
5.87
3.88
2.30
1.14
0.36
-0.07
-0.19
0.09
0.84
2.11
3.78
5.55
7.05
7.93
8.06
7.50
6.49
5.27
4.04
2.84
1.67
0.51
-0.65
-1.82
-3.00
-4.26
-5.70
-7.32
-9.05
-10.73
-12.14
-13.13
-13.72
-14.12
-14.66
-15.63
-17.12
-18.84
-20.26
-20.75
-19.83
-17.38
-13.60
-8.93
-3.83
1.27
6.09
10.42
14.11
17.06
19.21
20.55
21.15
21.10
20.49
19.37
17.82
15.96
13.96
12.02
10.32
8.97
7.96
7.20
6.55
5.90
5.19
4.47
3.83
3.35
3.04
2.84
2.67
2.45
2.18
1.85
1.47
1.05
0.57
0.03
-0.53
-1.08
-1.52
-1.86
-2.09
-2.32
-2.62
-3.10
-3.84
-4.80
-5.93
-7.07
-8.11
-9.01
-9.85
-10.86
-12.28
-14.24
-16.63
-19.11
-21.18
-22.44
-22.62
-21.72
-19.85
-17.21
-13.89
-10.03
-5.77
-1.39
2.71
6.14
8.66
10.29
11.34
12.16
13.08
14.16
15.22
15.98
16.23
15.90
15.16
14.21
13.22
12.25
11.28
10.30
9.35
8.52
7.89
7.43
7.02
6.52
5.88
5.12
4.32
3.52
2.66
1.62
0.32
-1.19
-2.74
-4.08
-5.03
-5.58
-5.89
-6.22
-6.81
-7.84
-9.37
-11.37
-13.63
-15.90
-17.81
-19.09
-19.66
-19.67
-19.54
-19.75
-20.63
-22.21
-24.12
-25.70
-26.29
-25.44
-23.02
-19.33
-14.85
-10.11
-5.51
-1.26
2.55
5.84
8.52
10.49
11.69
12.19
12.20
11.96
11.71
11.55
11.48
11.48
11.48
11.44
11.30
11.05
10.65
10.08
9.37
8.58
7.75
6.93
6.15
5.42
4.77
4.23
3.88
3.75
3.82
4.01
4.15
4.04
3.55
2.61
1.26
-0.38
-2.18
-4.00
-5.68
-7.16
-8.35
-9.28
-10.00
-10.63
-11.30
-12.08
-12.98
-13.95
-14.99
-16.14
-17.53
-19.29
-21.46
-23.88
-26.29
-28.33
-29.67
-30.00
-29.12
-26.91
-23.41
-18.83
-13.53
-7.98
-2.63
2.16
6.24
9.60
12.32
14.49
16.15
17.35
18.11
18.46
18.42
18.02
17.28
16.31
15.29
14.46
14.01
14.03
14.43
14.96
15.28
15.09
14.22
12.71
10.77
8.68
6.72
5.12
3.97
3.28
2.97
2.91
2.94
2.94
2.82
2.55
2.15
1.64
1.05
0.39
-0.33
-1.10
-1.88
-2.65
-3.36
-4.06
-4.81
-5.73
-6.96
-8.61
-10.73
-13.22
-15.90
-18.57
-21.09
-23.44
-25.67
-27.86
-29.98
-31.78
-32.87
-32.86
-31.43
-28.55
-24.49
-19.65
-14.49
-9.35
-4.45
0.12
4.32
8.05
11.20
13.66
15.41
16.53
17.24
17.72
18.12
18.46
18.69
18.71
18.49
18.09
17.65
17.32
17.22
17.35
17.59
17.78
17.76
17.42
16.75
15.78
14.68
13.56
12.53
11.59
10.66
9.60
8.31
6.78
5.13
3.51
2.06
0.82
-0.26
-1.25
-2.21
-3.10
-3.88
-4.48
-4.93
-5.30
-5.70
-6.22
-6.90
-7.71
-8.56
-9.38
-10.16
-10.94
-11.83
-12.94
-14.37
-16.09
-17.98
-19.82
-21.36
-22.26
-22.21
-20.94
-18.34
-14.55
-9.94
-5.01
-0.21
4.12
7.82
10.89
13.38
15.30
16.62
17.29
17.26
16.56
15.33
13.78
12.22
10.97
10.31
10.42
11.23
12.51
13.88
14.95
15.42
15.21
14.37
13.09
11.60
10.07
8.65
7.38
6.32
5.50
4.87
4.37
3.87
3.22
2.31
1.10
-0.33
-1.84
-3.24
-4.40
-5.28
-5.95
-6.58
-7.37
-8.43
-9.73
-11.14
-12.50
-13.71
-14.79
-15.96
-17.47
-19.51
-22.07
-24.95
-27.73
-29.97
-31.32
-31.55
-30.58
-28.39
-24.97
-20.28
-14.39
-7.59
-0.41
6.34
11.87
15.61
17.40
17.59
16.85
15.93
15.44
15.63
16.44
17.57
18.72
19.70
20.48
21.17
21.82
22.45
22.93
23.10
22.84
22.16
21.17
20.06
18.95
17.84
16.63
15.19
13.48
11.58
9.70
8.07
6.86
6.05
5.47
4.87
4.07
3.00
1.76
0.52
-0.59
-1.48
-2.22
-2.97
-3.91
-5.21
-6.91
-8.94
-11.15
-13.32
-15.30
-17.01
-18.50
-19.92
-21.41
-23.00
-24.60
-26.01
-27.01
-27.44
-27.17
-26.07
-23.96
-20.66
-16.14
-10.61
-4.59
1.26
6.35
10.35
13.29
15.39
16.90
17.95
18.52
18.57
18.16
17.55
17.06
16.95
17.26
17.85
18.39
18.67
18.57
18.19
17.70
17.22
16.76
16.17
15.25
13.92
12.20
10.28
8.44
6.85
5.59
4.55
3.62
2.70
1.81
1.09
0.70
0.69
1.00
1.36
1.50
1.19
0.36
-0.91
-2.42
-3.97
-5.42
-6.72
-7.94
-9.21
-10.64
-12.28
-14.03
-15.76
-17.28
-18.50
-19.46
-20.33
-21.35
-22.66
-24.24
-25.88
-27.23
-27.92
-27.64
-26.16
-23.45
-19.55
-14.70
-9.25
-3.68
1.52
5.93
9.33
11.72
13.30
14.29
14.94
15.30
15.33
14.96
14.19
13.17
12.10
11.25
10.74
10.60
10.66
10.73
10.64
10.35
9.97
9.67
9.56
9.59
9.59
9.34
8.65
7.51
6.05
4.51
3.08
1.92
1.07
0.55
0.36
0.52
1.02
1.76
2.59
3.29
3.74
3.81
3.48
2.67
1.34
-0.54
-2.89
-5.52
-8.14
-10.41
-12.15
-13.30
-14.01
-14.57
-15.30
-16.42
-18.03
-20.01
-22.07
-23.84
-24.88
-24.85
-23.56
-21.03
-17.50
-13.33
-8.96
-4.77
-0.99
2.26
5.01
7.36
9.38
11.11
12.50
13.43
13.79
13.53
12.70
11.50
10.24
9.27
8.89
9.22
10.13
11.28
12.24
12.60
12.22
11.14
9.60
7.88
6.21
4.69
3.32
2.07
0.88
-0.25
-1.29
-2.23
-2.98
-3.53
-3.84
-4.01
-4.12
-4.32
-4.66
-5.11
-5.58
-5.99
-6.34
-6.72
-7.31
-8.23
-9.47
-10.89
-12.26
-13.41
-14.30
-15.08
-15.98
-17.23
-18.88
-20.82
-22.74
-24.29
-25.19
-25.26
-24.46
-22.77
-20.23
-16.91
-12.94
-8.56
-4.08
0.18
3.99
7.25
9.94
12.08
13.62
14.48
14.55
13.82
12.45
10.76
9.11
7.81
7.01
6.68
6.68
6.89
7.32
8.10
9.33
10.93
12.60
13.89
14.44
14.13
13.12
11.75
10.31
8.98
7.80
6.71
5.73
4.90
4.26
3.71
3.08
2.16
0.84
-0.76
-2.42
-3.88
-4.99
-5.75
-6.30
-6.82
-7.52
-8.53
-9.97
-11.89
-14.23
-16.81
-19.31
-21.43
-22.95
-23.90
-24.53
-25.25
-26.44
-28.22
-30.42
-32.53
-33.88
-33.83
-31.97
-28.24
-22.92
-16.52
-9.70
-3.04
2.95
7.96
11.81
14.49
16.09
16.79
16.82
16.46
15.94
15.49
15.25
15.27
15.53
15.97
16.48
16.95
17.36
17.73
18.12
18.61
19.21
19.85
20.40
20.68
20.60
20.12
19.25
18.06
16.58
14.90
13.09
11.27
9.61
8.25
7.26
6.55
5.94
5.17
4.04
2.52
0.75
-1.04
-2.62
-3.91
-4.95
-5.96
-7.21
-8.92
-11.22
-14.06
-17.22
-20.39
-23.21
-25.45
-27.05
-28.12
-28.94
-29.76
-30.70
-31.71
-32.54
-32.89
-32.49
-31.14
-28.76
-25.33
-20.94
-15.76
-10.03
-4.04
1.88
7.45
12.46
16.81
20.43
23.30
25.41
26.72
27.27
27.18
26.71
26.12
25.69
25.56
25.76
26.19
26.74
27.26
27.70
27.98
28.03
27.75
27.03
25.74
23.76
21.04
17.66
13.85
10.01
6.55
3.78
1.75
0.26
-1.05
-2.42
-3.87
-5.13
-5.80
-5.59
-4.55
-3.08
-1.76
-1.09
-1.29
-2.27
-3.70
-5.25
-6.71
-8.12
-9.58
-11.22
-13.10
-15.12
-17.18
-19.22
-21.28
-23.46
-25.87
-28.41
-30.77
-32.43
-32.82
-31.53
-28.42
-23.70
-17.83
-11.34
-4.75
1.58
7.35
12.38
16.46
19.47
21.38
22.29
22.41
21.99
21.29
20.51
19.81
19.34
19.22
19.52
20.24
21.24
22.29
23.19
23.75
23.89
23.64
23.05
22.19
21.07
19.71
18.13
16.42
14.69
13.04
11.53
10.06
8.47
6.55
4.20
1.51
-1.22
-3.59
-5.21
-5.86
-5.65
-4.91
-4.11
-3.72
-3.99
-4.99
-6.59
-8.52
-10.53
-12.41
-13.97
-15.14
-15.94
-16.57
-17.32
-18.55
-20.49
-23.20
-26.47
-29.96
-33.19
-35.69
-36.97
-36.60
-34.22
-29.72
-23.27
-15.46
-7.11
0.87
7.75
13.20
17.23
20.14
22.29
23.94
25.21
26.06
26.45
26.35
25.87
25.14
24.34
23.56
22.83
22.10
21.37
20.67
20.04
19.50
18.97
18.30
17.35
16.07
14.55
13.02
11.70
10.73
10.12
9.73
9.37
8.88
8.16
7.20
6.05
4.76
3.37
1.95
0.54
-0.78
-1.92
-2.82
-3.47
-3.93
-4.33
-4.85
-5.65
-6.80
-8.30
-10.03
-11.84
-13.57
-15.11
-16.44
-17.63
-18.84
-20.23
-21.93
-24.01
-26.38
-28.83
-31.06
-32.67
-33.30
-32.62
-30.48
-26.91
-22.16
-16.61
-10.65
-4.65
1.16
6.61
11.58
15.93
19.46
21.97
23.37
23.73
23.26
22.28
21.09
19.92
18.83
17.81
16.82
15.79
14.74
13.76
12.94
12.36
11.97
11.62
11.09
10.21
8.97
7.54
6.19
5.12
4.36
3.73
2.97
1.91
0.62
-0.61
-1.38
-1.44
-0.78
0.32
1.44
2.14
2.21
1.67
0.71
-0.42
-1.56
-2.67
-3.81
-5.07
-6.48
-7.99
-9.53
-10.99
-12.31
-13.51
-14.62
-15.73
-16.87
-18.06
-19.27
-20.49
-21.69
-22.89
-24.03
-24.94
-25.30
-24.72
-22.84
-19.53
-15.03
-9.85
-4.63
0.08
4.03
7.25
9.96
12.31
14.33
15.84
16.66
16.65
15.89
14.64
13.24
12.07
11.34
11.12
11.34
11.81
12.35
12.83
13.17
13.36
13.35
13.04
12.30
10.99
9.08
6.72
4.21
1.94
0.24
-0.72
-1.03
-0.96
-0.87
-1.12
-1.93
-3.34
-5.19
-7.18
-8.97
-10.25
-10.90
-10.94
-10.51
-9.87
-9.32
-9.16
-9.70
-11.10
-13.32
-16.05
-18.78
-20.95
-22.24
-22.69
-22.65
-22.65
-23.06
-23.98
-25.16
-26.18
-26.64
-26.25
-24.93
-22.80
-19.98
-16.62
-12.83
-8.69
-4.29
0.22
4.65
8.74
12.25
15.05
17.09
18.44
19.22
19.49
19.25
18.49
17.28
15.82
14.42
13.37
12.82
12.75
12.93
13.11
13.06
12.69
12.06
11.37
10.81
10.50
10.45
10.52
10.48
10.12
9.36
8.22
6.86
5.44
4.08
2.81
1.61
0.46
-0.58
-1.41
-1.95
-2.22
-2.38
-2.72
-3.48
-4.75
-6.44
-8.25
-9.86
-11.08
-11.86
-12.33
-12.68
-13.02
-13.41
-13.88
-14.50
-15.38
-16.62
-18.27
-20.27
-22.50
-24.84
-27.16
-29.36
-31.20
-32.36
-32.45
-31.17
-28.44
-24.43
-19.51
-14.11
-8.64
-3.41
1.35
5.49
8.88
11.48
13.36
14.66
15.54
16.13
16.47
16.52
16.23
15.56
14.59
13.47
12.38
11.52
10.99
10.83
11.06
11.61
12.38
13.12
13.52
13.27
12.30
10.78
9.18
7.99
7.54
7.76
8.25
8.50
8.14
7.08
5.53
3.79
2.12
0.66
-0.53
-1.43
-2.03
-2.41
-2.79
-3.44
-4.55
-6.12
-7.90
-9.53
-10.73
-11.47
-11.90
-12.30
-12.83
-13.52
-14.29
-15.06
-15.90
-17.00
-18.60
-20.85
-23.63
-26.59
-29.18
-30.78
-30.90
-29.28
-25.92
-21.08
-15.25
-8.99
-2.87
2.64
7.25
10.90
13.67
15.76
17.38
18.65
19.64
20.36
20.84
21.09
21.15
21.00
20.66
20.16
19.61
19.17
19.05
19.33
19.99
20.79
21.37
21.34
20.46
18.72
16.34
13.70
11.23
9.27
7.93
7.17
6.76
6.46
6.07
5.50
4.75
3.89
3.01
2.13
1.20
0.09
-1.31
-3.04
-5.05
-7.19
-9.30
-11.29
-13.18
-15.05
-16.97
-19.00
-21.08
-23.14
-25.14
-27.11
-29.12
-31.19
-33.22
-34.98
-36.09
-36.13
-34.81
-31.96
-27.62
-22.01
-15.52
-8.59
-1.71
4.73
10.48
15.40
19.48
22.72
25.17
26.87
27.89
28.33
28.33
28.01
27.47
26.80
26.08
25.42
24.97
24.86
25.09
25.54
25.92
25.86
25.09
23.57
21.61
19.72
18.46
18.16
18.70
19.62
20.27
20.09
18.85
16.67
13.88
10.86
7.83
4.89
2.07
-0.60
-3.03
-5.06
-6.62
-7.71
-8.49
-9.20
-10.09
-11.33
-12.96
-14.86
-16.79
-18.50
-19.85
-20.82
-21.51
-22.15
-23.01
-24.35
-26.37
-29.13
-32.43
-35.79
-38.42
-39.55
-38.55
-35.24
-29.89
-23.08
-15.48
-7.64
0.05
7.33
13.99
19.82
24.61
28.29
30.82
32.26
32.62
31.95
30.37
28.13
25.68
23.48
21.85
20.82
20.17
19.64
19.04
18.45
18.06
18.07
18.51
19.27
20.15
20.92
21.43
21.56
21.16
20.11
18.38
16.05
13.40
10.79
8.52
6.77
5.53
4.67
3.97
3.30
2.53
1.63
0.60
-0.56
-1.80
-3.04
-4.17
-5.04
-5.54
-5.72
-5.79
-6.11
-7.01
-8.62
-10.82
-13.26
-15.58
-17.55
-19.22
-20.74
-22.31
-24.07
-26.04
-28.12
-30.17
-31.99
-33.30
-33.82
-33.33
-31.73
-29.08
-25.53
-21.25
-16.37
-11.05
-5.47
0.06
5.27
9.92
13.93
17.36
20.31
22.81
24.83
26.27
27.08
27.22
26.70
25.53
23.70
21.30
18.51
15.73
13.42
11.98
11.52
11.78
12.20
12.16
11.27
9.49
7.13
4.69
2.69
1.47
1.23
1.90
3.23
4.80
6.20
7.07
7.26
6.85
6.01
4.95
3.78
2.48
1.09
-0.36
-1.72
-2.85
-3.73
-4.46
-5.20
-6.10
-7.17
-8.36
-9.60
-10.88
-12.22
-13.66
-15.18
-16.75
-18.33
-19.91
-21.51
-23.08
-24.37
-25.04
-24.66
-22.97
-19.95
-15.85
-11.10
-6.16
-1.43
2.76
6.12
8.35
9.29
9.01
7.90
6.64
5.89
6.04
6.99
8.22
9.13
9.28
8.67
7.62
6.48
5.46
4.55
3.70
3.02
2.79
3.28
4.42
5.76
6.52
6.09
4.31
1.63
-1.17
-3.42
-4.82
-5.49
-5.72
-5.67
-5.39
-4.83
-4.15
-3.69
-3.88
-5.00
-7.00
-9.50
-12.03
-14.16
-15.73
-16.84
-17.68
-18.45
-19.26
-20.11
-21.00
-21.94
-22.93
-23.98
-25.02
-25.84
-26.20
-25.86
-24.69
-22.72
-20.13
-17.11
-13.85
-10.43
-6.83
-2.97
1.19
5.62
10.13
14.44
18.15
20.82
22.20
22.28
21.36
19.94
18.46
17.15
15.99
14.83
13.56
12.27
11.15
10.44
10.17
10.10
9.84
9.02
7.53
5.62
3.80
2.58
2.18
2.48
3.04
3.35
3.13
2.38
1.35
0.36
-0.46
-1.22
-2.17
-3.53
-5.31
-7.35
-9.37
-11.15
-12.55
-13.56
-14.26
-14.77
-15.25
-15.86
-16.69
-17.80
-19.15
-20.65
-22.23
-23.86
-25.54
-27.26
-28.95
-30.47
-31.52
-31.78
-30.91
-28.63
-24.91
-19.94
-14.23
-8.42
-3.12
1.26
4.66
7.33
9.65
11.90
14.20
16.37
18.15
19.30
19.72
19.47
18.79
17.94
17.18
16.67
16.45
16.48
16.64
16.76
16.72
16.45
15.99
15.40
14.72
13.94
13.01
11.95
10.88
10.03
9.62
9.72
10.13
10.50
10.44
9.79
8.70
7.51
6.64
6.20
5.98
5.50
4.28
2.14
-0.79
-4.09
-7.36
-10.40
-13.30
-16.21
-19.20
-22.01
-24.15
-25.02
-24.23
-21.71
-17.78
-12.93
-7.71
-2.57
2.21
6.45
10.03
12.80
14.65
15.51
15.45
14.65
13.38
11.98
10.72
9.83
9.43
9.48
9.82
10.19
10.35
10.16
9.62
8.84
7.94
6.97
5.87
4.60
3.20
1.81
0.65
-0.17
-0.72
-1.25
-2.07
-3.39
-5.23
-7.45
-9.81
-12.10
-14.19
-16.07
-17.78
-19.43
-21.12
-22.96
-25.04
-27.43
-30.08
-32.82
-35.30
-37.02
-37.45
-36.10
-32.77
-27.61
-21.09
-13.92
-6.79
-0.18
5.63
10.63
14.86
18.39
21.24
23.41
24.90
25.81
26.29
26.50
26.58
26.58
26.43
26.06
25.39
24.48
23.44
22.44
21.60
20.86
20.03
18.83
17.03
14.49
11.32
7.75
4.11
0.67
-2.36
-4.87
-6.85
-8.29
-9.22
-9.70
-9.81
-9.66
-9.44
-9.35
-9.64
-10.51
-12.08
-14.25
-16.70
-18.92
-20.25
-20.15
-18.35
-14.95
-10.41
-5.29
-0.05
5.04
9.94
14.64
19.04
22.90
25.87
27.69
28.22
27.54
25.82
23.31
20.25
16.95
13.80
11.20
9.47
8.72
8.82
9.44
10.28
11.13
11.96
12.79
13.57
14.08
14.04
13.29
11.87
10.10
8.37
6.94
5.82
4.73
3.32
1.34
-1.23
-4.23
-7.42
-10.61
-13.68
-16.53
-19.02
-20.91
-21.96
-21.93
-20.70
-18.26
-14.69
-10.21
-5.09
0.33
5.64
10.43
14.39
17.30
19.13
20.00
20.09
19.58
18.64
17.38
15.92
14.39
12.95
11.74
10.87
10.32
10.01
9.79
9.55
9.20
8.70
8.01
7.09
5.86
4.31
2.48
0.50
-1.46
-3.29
-5.00
-6.74
-8.78
-11.33
-14.45
-17.95
-21.51
-24.80
-27.61
-29.90
-31.70
-33.05
-33.83
-33.82
-32.73
-30.36
-26.64
-21.70
-15.80
-9.25
-2.38
4.51
11.09
16.99
21.88
25.48
27.72
28.70
28.69
28.08
27.18
26.23
25.32
24.44
23.58
22.77
22.07
21.56
21.22
20.89
20.25
18.91
16.60
13.29
9.17
4.63
0.08
-4.19
-8.07
-11.61
-14.89
-18.00
-20.94
-23.67
-26.14
-28.30
-30.15
-31.74
-33.04
-33.96
-34.24
-33.48
-31.29
-27.46
-22.16
-15.91
-9.53
-3.75
0.95
4.49
7.06
8.98
10.50
11.74
12.83
13.88
15.03
16.39
17.92
19.45
20.70
21.48
21.72
21.54
21.15
20.72
20.26
19.57
18.39
16.51
13.88
10.70
7.25
3.86
0.69
-2.19
-4.83
-7.24
-9.35
-11.08
-12.33
-13.16
-13.70
-14.21
-14.90
-15.89
-17.18
-18.60
-19.85
-20.50
-20.19
-18.63
-15.81
-11.89
-7.24
-2.28
2.60
7.09
10.94
13.99
16.18
17.50
18.03
17.87
17.18
16.13
14.90
13.72
12.73
12.00
11.48
11.07
10.69
10.34
10.10
10.03
10.11
10.18
10.02
9.48
8.56
7.41
6.23
5.20
4.38
3.69
3.04
2.33
1.53
0.64
-0.28
-1.22
-2.12
-2.93
-3.67
-4.36
-5.08
-5.90
-6.83
-7.75
-8.50
-8.98
-9.17
-9.24
-9.40
-9.87
-10.74
-11.94
-13.33
-14.75
-16.11
-17.41
-18.66
-19.94
-21.27
-22.62
-23.93
-25.07
-25.88
-26.17
-25.80
-24.65
-22.70
-20.04
-16.86
-13.45
-10.11
-7.06
-4.45
-2.25
-0.34
1.42
3.14
4.85
6.45
7.78
8.67
8.99
8.74
8.10
7.36
6.78
6.52
6.53
6.61
6.49
5.99
5.13
4.09
3.18
2.60
2.41
2.50
2.70
2.85
2.89
2.86
2.77
2.62
2.30
1.78
1.07
0.32
-0.29
-0.63
-0.74
-0.80
-1.08
-1.71
-2.68
-3.79
-4.81
-5.57
-6.03
-6.30
-6.49
-6.72
-7.07
-7.56
-8.21
-9.05
-10.07
-11.27
-12.58
-13.90
-15.16
-16.23
-17.03
-17.51
-17.72
-17.74
-17.71
-17.70
-17.66
-17.38
-16.62
-15.16
-12.97
-10.25
-7.30
-4.48
-2.00
0.07
1.81
3.34
4.72
5.92
6.84
7.38
7.47
7.20
6.70
6.15
5.66
5.26
4.88
4.43
3.90
3.34
2.83
2.40
1.99
1.42
0.61
-0.44
-1.48
-2.18
-2.23
-1.51
-0.22
1.26
2.52
3.29
3.55
3.48
3.35
3.31
3.37
3.39
3.18
2.68
1.89
0.85
-0.44
-2.06
-4.12
-6.61
-9.39
-12.22
-14.79
-16.96
-18.71
-20.11
-21.20
-21.90
-22.01
-21.34
-19.89
-17.81
-15.44
-13.03
-10.70
-8.32
-5.70
-2.70
0.59
3.85
6.64
8.61
9.66
9.96
9.89
9.75
9.74
9.86
10.04
10.22
10.43
10.76
11.25
11.90
12.62
13.32
13.95
14.44
14.78
14.93
14.85
14.54
14.05
13.45
12.78
11.97
10.88
9.40
7.52
5.38
3.21
1.27
-0.34
-1.67
-2.88
-4.10
-5.40
-6.77
-8.12
-9.43
-10.73
-12.04
-13.29
-14.32
-14.96
-15.20
-15.27
-15.64
-16.76
-18.80
-21.49
-24.18
-26.03
-26.37
-24.91
-21.75
-17.36
-12.31
-7.13
-2.24
2.11
5.79
8.74
11.00
12.60
13.60
14.07
14.11
13.85
13.44
13.06
12.93
13.20
13.94
15.12
16.51
17.82
18.76
19.17
19.08
18.68
18.20
17.77
17.40
16.96
16.32
15.36
14.06
12.45
10.62
8.73
7.02
5.79
5.24
5.47
6.30
7.42
8.41
8.98
8.97
8.43
7.50
6.34
5.07
3.74
2.37
0.94
-0.57
-2.19
-3.94
-5.86
-7.99
-10.32
-12.80
-15.29
-17.61
-19.56
-21.02
-22.02
-22.73
-23.41
-24.25
-25.29
-26.41
-27.29
-27.59
-27.03
-25.40
-22.65
-18.84
-14.16
-8.89
-3.35
2.07
6.95
10.95
13.87
15.72
16.68
17.07
17.22
17.31
17.43
17.58
17.70
17.80
17.89
17.95
17.97
17.96
17.99
18.18
18.67
19.45
20.36
21.10
21.42
21.21
20.57
19.73
18.86
17.99
17.01
15.79
14.29
12.61
10.90
9.36
8.12
7.19
6.53
6.00
5.48
4.87
4.17
3.45
2.83
2.42
2.21
2.08
1.82
1.23
0.22
-1.12
-2.62
-4.11
-5.49
-6.81
-8.22
-9.87
-11.76
-13.83
-15.92
-17.87
-19.64
-21.23
-22.62
-23.65
-24.02
-23.34
-21.31
-17.86
-13.23
-7.88
-2.37
2.85
7.49
11.44
14.65
17.03
18.45
18.83
18.23
16.89
15.22
13.68
12.57
11.95
11.64
11.36
10.88
10.19
9.44
8.93
8.83
9.17
9.74
10.24
10.37
9.97
9.06
7.84
6.56
5.41
4.46
3.66
2.93
2.17
1.36
0.49
-0.38
-1.27
-2.21
-3.28
-4.48
-5.77
-7.00
-8.04
-8.89
-9.73
-10.88
-12.64
-15.15
-18.17
-21.21
-23.65
-25.07
-25.42
-25.06
-24.54
-24.35
-24.66
-25.28
-25.77
-25.66
-24.62
-22.55
-19.48
-15.56
-10.97
-5.92
-0.69
4.35
8.87
12.57
15.28
16.97
17.70
17.60
16.89
15.82
14.71
13.84
13.41
13.51
14.03
14.80
15.63
16.38
17.01
17.49
17.81
17.90
17.68
17.08
16.11
14.89
13.56
12.30
11.18
10.21
9.32
8.43
7.50
6.55
5.61
4.71
3.83
2.92
1.93
0.88
-0.20
-1.21
-2.12
-2.94
-3.74
-4.64
-5.69
-6.89
-8.14
-9.30
-10.29
-11.09
-11.80
-12.56
-13.50
-14.73
-16.29
-18.12
-20.12
-22.17
-24.14
-25.93
-27.35
-28.13
-27.93
-26.39
-23.35
-18.97
-13.70
-8.20
-3.03
1.51
5.44
8.90
11.99
14.58
16.40
17.20
16.94
15.88
14.50
13.28
12.57
12.48
12.91
13.65
14.44
15.03
15.25
15.04
14.45
13.64
12.84
12.16
11.67
11.32
10.98
10.59
10.09
9.45
8.68
7.79
6.81
5.77
4.69
3.48
2.07
0.38
-1.52
-3.36
-4.80
-5.53
-5.47
-4.90
-4.33
-4.28
-5.07
-6.64
-8.61
-10.47
-11.80
-12.48
-12.67
-12.73
-12.99
-13.68
-14.84
-16.41
-18.28
-20.32
-22.39
-24.33
-25.88
-26.76
-26.68
-25.51
-23.21
-19.93
-15.92
-11.50
-6.98
-2.64
1.32
4.83
7.90
10.58
12.87
14.66
15.80
16.17
15.84
14.95
13.80
12.67
11.79
11.26
11.12
11.32
11.78
12.35
12.82
13.02
12.85
12.26
11.34
10.16
8.82
7.41
6.00
4.71
3.65
2.84
2.22
1.66
1.05
0.39
-0.20
-0.58
-0.67
-0.52
-0.35
-0.33
-0.58
-0.99
-1.39
-1.59
-1.56
-1.43
-1.41
-1.65
-2.15
-2.81
-3.54
-4.39
-5.44
-6.86
-8.71
-10.95
-13.39
-15.77
-17.91
-19.71
-21.14
-22.26
-23.11
-23.68
-23.92
-23.67
-22.72
-20.84
-17.93
-14.12
-9.75
-5.30
-1.16
2.48
5.65
8.50
11.14
13.52
15.44
16.70
17.16
16.87
16.04
14.92
13.79
12.80
12.10
11.72
11.64
11.83
12.15
12.52
12.82
12.96
12.87
12.47
11.70
10.56
9.05
7.20
5.03
2.52
-0.28
-3.19
-5.88
-7.96
-9.08
-9.17
-8.47
-7.42
-6.53
-6.12
-6.25
-6.76
-7.43
-8.10
-8.76
-9.49
-10.35
-11.35
-12.41
-13.48
-14.55
-15.73
-17.17
-18.96
-21.11
-23.49
-25.92
-28.18
-30.05
-31.31
-31.69
-30.96
-28.98
-25.72
-21.33
-16.12
-10.44
-4.67
0.87
5.89
10.15
13.50
15.90
17.45
18.36
18.90
19.22
19.38
19.34
19.03
18.49
17.83
17.22
16.82
16.67
16.70
16.75
16.63
16.21
15.42
14.31
12.94
11.45
9.93
8.49
7.19
6.07
5.11
4.25
3.43
2.57
1.67
0.79
0.04
-0.39
-0.43
-0.07
0.54
1.19
1.68
1.87
1.74
1.40
0.99
0.65
0.42
0.22
-0.09
-0.70
-1.73
-3.14
-4.82
-6.51
-7.96
-8.93
-9.27
-8.87
-7.66
-5.68
-3.02
0.12
3.45
6.68
9.55
11.86
13.49
14.36
14.46
13.87
12.77
11.37
9.87
8.34
6.81
5.29
3.83
2.58
1.72
1.35
1.41
1.68
1.94
2.03
1.92
1.71
1.53
1.42
1.29
1.00
0.42
-0.47
-1.62
-2.86
-4.07
-5.16
-6.22
-7.40
-8.83
-10.50
-12.26
-13.88
-15.16
-16.11
-16.86
-17.68
-18.79
-20.30
-22.22
-24.45
-26.84
-29.24
-31.43
-33.17
-34.25
-34.49
-33.85
-32.33
-29.97
-26.78
-22.81
-18.15
-13.03
-7.78
-2.72
1.94
6.08
9.71
12.87
15.59
17.92
19.90
21.59
23.05
24.28
25.23
25.84
26.09
26.01
25.79
25.59
25.53
25.63
25.77
25.77
25.38
24.40
22.67
20.11
16.78
12.91
8.85
4.98
1.65
-0.96
-2.85
-4.14
-5.02
-5.64
-6.13
-6.54
-6.97
-7.49
-8.15
-8.95
-9.81
-10.64
-11.39
-12.04
-12.61
-13.14
-13.69
-14.33
-15.16
-16.24
-17.63
-19.25
-20.96
-22.52
-23.65
-24.08
-23.60
-22.02
-19.28
-15.43
-10.70
-5.49
-0.25
4.61
8.88
12.56
15.78
18.64
21.09
22.97
24.13
24.52
24.33
23.87
23.41
23.11
22.94
22.79
22.56
22.29
22.04
21.91
21.85
21.71
21.28
20.37
18.92
16.98
14.70
12.29
9.95
7.81
5.91
4.21
2.67
1.27
0.02
-1.02
-1.86
-2.54
-3.12
-3.70
-4.31
-4.95
-5.65
-6.39
-7.18
-8.01
-8.85
-9.70
-10.55
-11.43
-12.33
-13.24
-14.06
-14.73
-15.22
-15.67
-16.28
-17.31
-18.87
-20.89
-23.06
-24.94
-26.04
-26.00
-24.64
-21.97
-18.19
-13.64
-8.72
-3.81
0.77
4.87
8.42
11.45
14.01
16.13
17.77
18.90
19.50
19.56
19.15
18.39
17.42
16.41
15.52
14.76
14.02
13.10
11.87
10.39
8.94
7.92
7.59
7.88
8.38
8.60
8.19
7.17
5.90
4.89
4.44
4.56
4.97
5.26
5.20
4.73
4.02
3.27
2.61
1.98
1.24
0.24
-1.12
-2.72
-4.42
-6.03
-7.48
-8.81
-10.11
-11.46
-12.90
-14.40
-15.91
-17.47
-19.10
-20.82
-22.58
-24.26
-25.69
-26.71
-27.13
-26.74
-25.33
-22.81
-19.22
-14.83
-10.03
-5.20
-0.66
3.44
7.05
10.17
12.77
14.84
16.37
17.44
18.14
18.56
18.70
18.56
18.09
17.33
16.42
15.57
15.00
14.80
14.91
15.13
15.20
14.93
14.32
13.53
12.76
12.16
11.71
11.23
10.52
9.49
8.21
6.97
5.97
5.32
4.92
4.52
3.85
2.77
1.31
-0.41
-2.19
-3.84
-5.27
-6.44
-7.38
-8.17
-8.98
-9.98
-11.27
-12.82
-14.50
-16.08
-17.36
-18.28
-18.90
-19.41
-20.01
-20.80
-21.80
-22.87
-23.79
-24.30
-24.16
-23.09
-20.94
-17.68
-13.48
-8.70
-3.79
0.81
4.78
7.94
10.25
11.75
12.56
12.87
12.86
12.74
12.63
12.62
12.69
12.75
12.72
12.55
12.20
11.70
11.10
10.49
9.94
9.43
8.82
7.88
6.42
4.41
2.03
-0.35
-2.36
-3.78
-4.58
-4.94
-5.14
-5.37
-5.78
-6.37
-7.08
-7.84
-8.56
-9.22
-9.81
-10.36
-10.90
-11.47
-12.12
-12.87
-13.77
-14.84
-16.07
-17.41
-18.73
-19.82
-20.42
-20.25
-19.10
-16.87
-13.62
-9.59
-5.07
-0.43
4.06
8.20
11.83
14.78
16.94
18.23
18.68
18.45
17.79
16.93
16.07
15.28
14.58
14.02
13.59
13.31
13.13
12.95
12.66
12.15
11.40
10.45
9.36
8.21
7.05
5.96
4.99
4.12
3.21
2.08
0.59
-1.27
-3.31
-5.30
-7.05
-8.58
-10.06
-11.71
-13.60
-15.65
-17.56
-19.11
-20.23
-21.08
-21.95
-23.04
-24.33
-25.57
-26.35
-26.36
-25.40
-23.43
-20.46
-16.52
-11.62
-5.86
0.46
6.87
12.76
17.61
21.10
23.20
24.09
24.05
23.37
22.23
20.81
19.28
17.76
16.36
15.16
14.19
13.47
13.00
12.78
12.78
12.90
13.02
13.00
12.77
12.26
11.49
10.45
9.12
7.52
5.64
3.63
1.67
0.00
-1.22
-1.99
-2.49
-2.97
-3.63
-4.57
-5.71
-6.86
-7.88
-8.74
-9.56
-10.50
-11.67
-13.04
-14.47
-15.82
-16.98
-18.03
-19.11
-20.40
-22.05
-24.00
-26.06
-27.89
-29.09
-29.29
-28.24
-25.80
-22.03
-17.13
-11.48
-5.51
0.32
5.66
10.25
14.01
16.94
19.08
20.50
21.32
21.66
21.70
21.57
21.40
21.21
20.96
20.63
20.21
19.80
19.54
19.53
19.77
20.11
20.34
20.28
19.82
19.01
17.99
16.92
15.89
14.86
13.74
12.42
10.90
9.29
7.79
6.57
5.66
4.94
4.14
3.00
1.40
-0.60
-2.75
-4.77
-6.44
-7.70
-8.65
-9.41
-10.14
-11.02
-12.27
-14.13
-16.73
-19.94
-23.30
-26.12
-27.82
-28.21
-27.63
-26.72
-26.17
-26.29
-26.89
-27.44
-27.31
-26.05
-23.50
-19.75
-15.03
-9.60
-3.73
2.24
7.92
12.92
16.89
19.63
21.14
21.61
21.36
20.81
20.26
19.93
19.88
20.02
20.18
20.15
19.73
18.79
17.32
15.50
13.62
12.07
11.15
10.93
11.24
11.70
11.91
11.64
10.85
9.75
8.59
7.55
6.68
5.93
5.22
4.49
3.72
2.89
1.89
0.64
-0.89
-2.52
-3.97
-4.89
-5.08
-4.59
-3.71
-2.89
-2.61
-3.19
-4.74
-7.07
-9.82
-12.47
-14.66
-16.21
-17.24
-18.07
-19.07
-20.40
-21.95
-23.40
-24.36
-24.53
-23.68
-21.69
-18.54
-14.31
-9.26
-3.83
1.42
5.96
9.44
11.79
13.20
13.97
14.42
14.69
14.83
14.73
14.34
13.72
13.10
12.76
12.88
13.43
14.11
14.58
14.62
14.28
13.82
13.56
13.56
13.65
13.49
12.78
11.52
9.95
8.43
7.27
6.53
6.01
5.43
4.58
3.45
2.22
1.20
0.69
0.79
1.40
2.18
2.72
2.64
1.74
0.10
-2.02
-4.20
-6.05
-7.38
-8.20
-8.74
-9.28
-10.06
-11.13
-12.42
-13.81
-15.21
-16.59
-17.98
-19.38
-20.73
-21.97
-23.08
-24.09
-25.08
-26.00
-26.61
-26.54
-25.34
-22.67
-18.50
-13.14
-7.15
-1.22
4.11
8.46
11.82
14.34
16.22
17.60
18.47
18.76
18.49
17.81
17.04
16.49
16.35
16.58
16.97
17.31
17.47
17.43
17.27
17.01
16.63
16.03
15.12
13.92
12.53
11.11
9.81
8.73
7.86
7.05
6.09
4.77
3.05
1.07
-0.87
-2.42
-3.36
-3.69
-3.62
-3.45
-3.40
-3.53
-3.78
-4.06
-4.36
-4.80
-5.51
-6.55
-7.85
-9.24
-10.58
-11.79
-12.98
-14.40
-16.26
-18.69
-21.59
-24.65
-27.41
-29.44
-30.47
-30.38
-29.23
-27.19
-24.43
-21.10
-17.34
-13.27
-9.01
-4.69
-0.46
3.53
7.10
10.08
12.37
13.90
14.70
14.87
14.55
13.95
13.26
12.69
12.36
12.33
12.53
12.82
13.08
13.20
13.16
12.93
12.46
11.70
10.64
9.35
7.98
6.67
5.55
4.69
4.08
3.69
3.49
3.38
3.25
2.96
2.46
1.75
0.96
0.23
-0.36
-0.85
-1.34
-1.97
-2.80
-3.76
-4.76
-5.70
-6.59
-7.54
-8.70
-10.21
-12.06
-14.08
-16.01
-17.56
-18.63
-19.35
-20.08
-21.23
-23.06
-25.46
-28.04
-30.18
-31.30
-31.11
-29.55
-26.72
-22.78
-17.87
-12.19
-6.09
-0.08
5.28
9.60
12.70
14.72
15.98
16.75
17.21
17.41
17.37
17.18
17.01
17.05
17.37
17.95
18.61
19.10
19.17
18.61
17.35
15.53
13.47
11.53
9.99
8.93
8.19
7.48
6.57
5.40
4.12
2.98
2.20
1.89
1.98
2.23
2.43
2.36
1.97
1.32
0.51
-0.33
-1.15
-1.91
-2.61
-3.16
-3.47
-3.45
-3.08
-2.51
-2.05
-1.98
-2.54
-3.79
-5.58
-7.61
-9.61
-11.38
-12.93
-14.38
-15.95
-17.81
-20.01
-22.46
-25.01
-27.44
-29.54
-31.04
-31.63
-30.99
-28.90
-25.33
-20.52
-14.89
-8.98
-3.26
1.92
6.40
10.14
13.19
15.62
17.51
18.84
19.56
19.61
19.05
18.09
17.06
16.33
16.15
16.51
17.17
17.79
18.09
17.91
17.36
16.62
15.91
15.35
14.87
14.38
13.75
12.95
12.03
11.10
10.20
9.27
8.25
7.06
5.75
4.51
3.55
3.02
2.89
2.98
3.01
2.72
2.01
0.92
-0.37
-1.71
-2.99
-4.26
-5.67
-7.40
-9.54
-12.06
-14.77
-17.33
-19.38
-20.71
-21.33
-21.48
-21.56
-21.90
-22.65
-23.69
-24.67
-25.17
-24.84
-23.44
-20.90
-17.24
-12.58
-7.13
-1.22
4.74
10.35
15.25
19.19
22.02
23.68
24.23
23.82
22.75
21.42
20.19
19.36
19.01
19.04
19.17
19.08
18.47
17.16
15.16
12.65
9.91
7.28
5.05
3.31
2.00
0.95
-0.02
-1.02
-2.01
-2.87
-3.49
-3.82
-3.95
-4.00
-4.10
-4.30
-4.56
-4.83
-5.06
-5.28
-5.55
-5.89
-6.26
-6.58
-6.81
-7.03
-7.41
-8.13
-9.28
-10.84
-12.64
-14.54
-16.37
-18.07
-19.58
-20.92
-22.15
-23.47
-25.10
-27.23
-29.85
-32.67
-35.16
-36.69
-36.72
-34.95
-31.36
-26.20
-19.87
-12.92
-5.88
0.80
6.78
12.00
16.54
20.61
24.37
27.87
30.97
33.47
35.11
35.77
35.47
34.35
32.70
30.87
29.12
27.69
26.63
25.87
25.24
24.56
23.68
22.55
21.21
19.74
18.20
16.61
14.94
13.25
11.65
10.29
9.30
8.72
8.37
8.04
7.50
6.72
5.80
4.93
4.26
3.75
3.21
2.41
1.29
-0.06
-1.41
-2.56
-3.42
-4.09
-4.77
-5.60
-6.68
-7.95
-9.32
-10.68
-11.99
-13.22
-14.32
-15.29
-16.19
-17.25
-18.73
-20.84
-23.54
-26.49
-29.19
-31.16
-32.12
-32.07
-31.05
-29.06
-25.86
-21.25
-15.27
-8.44
-1.69
4.01
8.08
10.63
12.38
14.16
16.48
19.18
21.57
22.91
22.77
21.33
19.22
17.22
15.88
15.41
15.69
16.47
17.51
18.68
19.84
20.89
21.67
22.04
21.92
21.35
20.47
19.42
18.31
17.09
15.56
13.58
11.15
8.63
6.55
5.39
5.24
5.70
6.06
5.71
4.45
2.56
0.53
-1.23
-2.54
-3.41
-3.88
-3.92
-3.54
-2.93
-2.51
-2.76
-3.96
-6.01
-8.50
-10.92
-12.92
-14.48
-15.76
-16.91
-18.01
-19.08
-20.16
-21.38
-22.79
-24.20
-25.15
-25.01
-23.19
-19.46
-14.12
-7.92
-1.83
3.28
6.96
9.18
10.28
10.73
10.82
10.65
10.13
9.19
7.85
6.37
5.01
3.93
3.17
2.63
2.32
2.38
2.99
4.18
5.65
6.88
7.28
6.56
4.80
2.43
-0.00
-2.08
-3.59
-4.48
-4.78
-4.55
-3.89
-2.98
-2.07
-1.40
-1.11
-1.25
-1.75
-2.55
-3.56
-4.70
-5.82
-6.75
-7.42
-7.87
-8.31
-9.04
-10.25
-11.90
-13.74
-15.44
-16.72
-17.55
-18.10
-18.64
-19.39
-20.43
-21.72
-23.24
-24.93
-26.70
-28.29
-29.26
-29.02
-27.12
-23.44
-18.29
-12.32
-6.26
-0.69
4.18
8.42
12.29
15.96
19.44
22.53
24.92
26.30
26.53
25.66
23.95
21.78
19.58
17.68
16.25
15.32
14.76
14.34
13.82
13.01
11.83
10.38
8.92
7.70
6.94
6.69
6.80
7.09
7.34
7.41
7.23
6.77
6.02
4.95
3.67
2.28
1.01
0.02
-0.65
-1.07
-1.44
-1.92
-2.64
-3.60
-4.76
-5.99
-7.18
-8.23
-9.12
-9.89
-10.69
-11.68
-12.97
-14.57
-16.40
-18.37
-20.34
-22.28
-24.12
-25.83
-27.38
-28.75
-30.00
-31.13
-32.10
-32.66
-32.46
-31.11
-28.36
-24.25
-19.01
-13.06
-6.86
-0.82
4.75
9.64
13.74
17.06
19.70
21.81
23.50
24.78
25.58
25.82
25.47
24.65
23.56
22.41
21.31
20.31
19.40
18.57
17.87
17.35
17.02
16.82
16.59
16.17
15.48
14.54
13.49
12.48
11.60
10.82
10.06
9.18
8.13
6.93
5.64
4.35
3.11
1.90
0.71
-0.48
-1.61
-2.58
-3.32
-3.84
-4.28
-4.92
-6.00
-7.57
-9.42
-11.17
-12.40
-12.91
-12.82
-12.50
-12.38
-12.68
-13.34
-14.13
-14.86
-15.53
-16.35
-17.59
-19.32
-21.38
-23.43
-25.06
-25.95
-25.89
-24.69
-22.29
-18.67
-13.99
-8.62
-2.98
2.46
7.33
11.36
14.31
15.97
16.23
15.29
13.73
12.38
12.03
13.05
15.26
17.94
20.30
21.79
22.23
21.85
21.02
20.06
19.08
18.05
16.91
15.61
14.20
12.77
11.40
10.10
8.78
7.30
5.56
3.59
1.55
-0.25
-1.56
-2.30
-2.63
-2.86
-3.33
-4.25
-5.62
-7.25
-8.88
-10.25
-11.21
-11.73
-11.96
-12.11
-12.49
-13.29
-14.57
-16.23
-18.12
-20.10
-22.13
-24.22
-26.40
-28.64
-30.85
-32.89
-34.61
-35.80
-36.16
-35.32
-32.95
-28.87
-23.22
-16.47
-9.27
-2.31
3.88
9.09
13.36
16.92
20.02
22.86
25.45
27.69
29.39
30.39
30.65
30.20
29.21
27.85
26.36
24.97
23.87
23.19
22.85
22.55
21.87
20.41
18.05
15.03
11.85
9.10
7.18
6.22
6.02
6.29
6.67
6.89
6.73
6.03
4.73
2.91
0.80
-1.17
-2.57
-3.17
-2.96
-2.26
-1.53
-1.19
-1.45
-2.30
-3.51
-4.86
-6.19
-7.46
-8.72
-10.02
-11.34
-12.62
-13.85
-15.03
-16.29
-17.72
-19.37
-21.21
-23.19
-25.25
-27.35
-29.46
-31.36
-32.69
-32.98
-31.79
-28.85
-24.20
-18.22
-11.50
-4.66
1.80
7.59
12.69
17.17
21.14
24.59
27.42
29.47
30.67
31.07
30.88
30.36
29.74
29.13
28.54
27.92
27.24
26.48
25.61
24.60
23.38
21.97
20.42
18.88
17.50
16.39
15.53
14.86
14.22
13.43
12.34
10.89
9.17
7.34
5.68
4.39
3.59
3.23
3.12
3.03
2.80
2.34
1.62
0.64
-0.59
-2.04
-3.59
-5.09
-6.38
-7.40
-8.20
-8.96
-9.85
-11.01
-12.47
-14.17
-15.93
-17.55
-18.87
-19.83
-20.55
-21.28
-22.36
-23.97
-26.01
-28.04
-29.38
-29.33
-27.48
-23.83
-18.79
-13.00
-7.04
-1.26
4.21
9.34
14.06
18.22
21.56
23.88
25.06
25.13
24.18
22.31
19.69
16.62
13.53
10.96
9.34
8.88
9.41
10.57
11.89
12.99
13.65
13.76
13.26
12.16
10.52
8.56
6.57
4.83
3.48
2.48
1.63
0.71
-0.41
-1.68
-2.96
-4.10
-5.03
-5.81
-6.56
-7.46
-8.58
-9.90
-11.24
-12.42
-13.31
-13.90
-14.34
-14.80
-15.46
-16.34
-17.36
-18.43
-19.49
-20.55
-21.69
-22.94
-24.28
-25.65
-26.95
-28.11
-29.00
-29.42
-29.07
-27.67
-25.01
-21.11
-16.19
-10.69
-5.06
0.27
5.08
9.33
13.13
16.55
19.58
21.98
23.40
23.57
22.48
20.41
17.93
15.58
13.72
12.46
11.64
11.09
10.69
10.42
10.29
10.18
9.88
9.07
7.56
5.29
2.48
-0.54
-3.36
-5.64
-7.25
-8.26
-8.93
-9.58
-10.48
-11.69
-12.92
-13.62
-12.99
-10.31
-5.21
2.12
10.91
19.99
28.15
34.46
38.46
40.15
39.76
37.62
33.98
29.04
23.05
16.40
9.54
2.91
-3.17
-8.52
-13.06
-16.77
-19.66
-21.85
-23.56
-25.12
-26.78
-28.56
-30.21
-31.27
-31.24
-29.82
-26.97
-22.98
-18.28
-13.37
-8.61
-4.25
-0.36
3.11
6.20
9.00
11.43
13.44
14.93
15.82
16.18
16.10
15.72
15.11
14.37
13.53
12.72
12.05
11.65
11.56
11.74
12.04
12.28
12.29
11.97
11.34
10.51
9.64
8.90
8.34
7.90
7.44
6.84
6.08
5.28
4.62
4.20
4.05
4.00
3.87
3.49
2.75
1.54
-0.18
-2.41
-5.05
-7.82
-10.38
-12.42
-13.81
-14.59
-14.96
-15.14
-15.28
-15.50
-15.84
-16.38
-17.17
-18.17
-19.28
-20.39
-21.47
-22.60
-23.90
-25.40
-26.97
-28.31
-29.07
-28.97
-27.89
-25.87
-23.00
-19.39
-15.14
-10.40
-5.43
-0.58
3.75
7.25
9.80
11.49
12.58
13.44
14.39
15.60
17.08
18.62
19.87
20.56
20.44
19.54
18.07
16.42
14.92
13.82
13.08
12.52
11.82
10.75
9.25
7.45
5.65
4.13
3.13
2.71
2.74
2.94
3.04
2.84
2.26
1.36
0.26
-0.92
-2.13
-3.34
-4.47
-5.50
-6.39
-7.22
-8.14
-9.33
-10.85
-12.64
-14.52
-16.26
-17.76
-19.01
-20.15
-21.25
-22.40
-23.59
-24.84
-26.21
-27.84
-29.72
-31.74
-33.46
-34.23
-33.39
-30.47
-25.45
-18.83
-11.50
-4.39
1.82
6.96
11.30
15.30
19.26
23.13
26.55
29.02
30.25
30.28
29.41
28.09
26.69
25.37
24.17
23.02
21.87
20.68
19.43
18.15
16.85
15.60
14.46
13.49
12.65
11.85
10.97
9.96
8.84
7.71
6.68
5.83
5.25
5.03
5.25
5.87
6.69
7.27
7.10
5.91
3.82
1.30
-1.04
-2.79
-3.90
-4.59
-5.21
-6.02
-7.17
-8.62
-10.28
-12.06
-13.80
-15.41
-16.79
-18.01
-19.15
-20.37
-21.65
-22.91
-24.02
-24.99
-26.02
-27.48
-29.60
-32.32
-35.16
-37.43
-38.43
-37.70
-35.12
-30.83
-25.16
-18.48
-11.20
-3.73
3.55
10.26
16.12
20.97
24.80
27.69
29.75
31.05
31.65
31.63
31.13
30.33
29.42
28.52
27.64
26.74
25.75
24.58
23.19
21.62
19.92
18.23
16.70
15.48
14.58
13.85
13.00
11.79
10.18
8.39
6.85
5.89
5.60
5.78
6.06
6.14
5.96
5.72
5.65
5.83
6.01
5.72
4.50
2.14
-1.13
-4.73
-7.96
-10.18
-11.10
-10.79
-9.70
-8.49
-7.85
-8.23
-9.83
-12.41
-15.41
-18.18
-20.20
-21.29
-21.63
-21.72
-22.16
-23.42
-25.65
-28.61
-31.73
-34.27
-35.51
-34.95
-32.44
-28.14
-22.49
-16.09
-9.58
-3.45
2.01
6.74
10.85
14.48
17.70
20.44
22.59
24.04
24.81
25.01
24.79
24.26
23.51
22.59
21.63
20.75
20.04
19.48
19.00
18.47
17.90
17.37
17.02
16.90
16.89
16.76
16.28
15.42
14.29
13.10
12.02
11.01
9.88
8.44
6.61
4.52
2.45
0.68
-0.70
-1.82
-2.97
-4.41
-6.30
-8.52
-10.87
-13.08
-15.02
-16.70
-18.20
-19.55
-20.74
-21.70
-22.41
-23.07
-24.05
-25.73
-28.36
-31.81
-35.55
-38.80
-40.75
-40.79
-38.66
-34.45
-28.52
-21.41
-13.74
-6.14
0.86
6.91
11.93
16.04
19.45
22.38
24.93
27.08
28.75
29.91
30.61
30.96
31.11
31.13
31.03
30.79
30.37
29.78
29.05
28.24
27.44
26.79
26.43
26.46
26.84
27.40
27.87
27.99
27.70
27.07
26.32
25.68
25.27
25.06
24.92
24.60
23.83
22.25
19.53
15.46
10.13
3.98
-2.34
-8.20
-13.28
-17.64
-21.56
-25.29
-28.90
-32.33
-35.52
-38.55
-41.62
-44.80
-47.84
-50.21
-51.32
-50.87
-49.19
-47.09
-45.51
-45.01
-45.58
-46.58
-47.10
-46.38
-44.03
-40.03
-34.57
-27.97
-20.55
-12.72
-4.96
2.24
8.45
13.44
17.25
20.10
22.28
24.01
25.43
26.54
27.36
27.91
28.24
28.41
28.46
28.43
28.35
28.26
28.19
28.07
27.77
27.09
25.82
23.84
21.17
17.92
14.34
10.67
7.18
4.13
1.79
0.39
-0.09
0.09
0.37
0.10
-1.15
-3.38
-6.09
-8.53
-9.99
-10.24
-9.54
-8.54
-7.84
-7.72
-8.04
-8.41
-8.51
-8.38
-8.26
-8.43
-8.89
-9.30
-9.20
-8.39
-7.09
-5.96
-5.69
-6.56
-8.27
-10.05
-11.00
-10.53
-8.54
-5.35
-1.46
2.62
6.52
10.03
13.00
15.34
16.99
17.96
18.30
18.10
17.45
16.47
15.24
13.84
12.41
11.05
9.86
8.97
8.50
8.54
9.10
9.99
10.86
11.20
10.56
8.79
6.13
3.18
0.61
-1.07
-1.81
-1.96
-2.08
-2.65
-3.84
-5.50
-7.26
-8.86
-10.22
-11.49
-12.89
-14.63
-16.71
-18.99
-21.18
-23.01
-24.36
-25.28
-26.05
-27.03
-28.51
-30.54
-32.84
-34.96
-36.42
-36.91
-36.30
-34.61
-31.92
-28.28
-23.84
-18.82
-13.62
-8.65
-4.20
-0.25
3.36
6.82
10.11
12.97
15.04
16.11
16.25
15.80
15.25
14.96
15.12
15.67
16.43
17.18
17.81
18.27
18.57
18.74
18.78
18.61
18.16
17.35
16.15
14.56
12.59
10.22
7.41
4.20
0.74
-2.66
-5.65
-7.96
-9.53
-10.57
-11.43
-12.47
-13.88
-15.71
-17.87
-20.26
-22.76
-25.29
-27.71
-29.89
-31.68
-32.93
-33.50
-33.21
-31.88
-29.32
-25.48
-20.48
-14.66
-8.51
-2.56
2.76
7.24
10.89
13.83
16.22
18.13
19.58
20.55
21.06
21.23
21.21
21.12
20.98
20.69
20.14
19.25
18.13
16.96
15.96
15.20
14.58
13.91
13.00
11.78
10.30
8.67
7.03
5.42
3.80
2.07
0.13
-2.10
-4.61
-7.31
-10.07
-12.76
-15.31
-17.71
-19.98
-22.09
-23.92
-25.25
-25.89
-25.71
-24.73
-23.01
-20.59
-17.44
-13.52
-8.85
-3.60
1.97
7.60
13.12
18.46
23.58
28.33
32.39
35.42
37.14
37.53
36.86
35.62
34.25
33.12
32.34
31.87
31.60
31.45
31.37
31.32
31.21
30.83
30.02
28.61
26.59
24.10
21.33
18.45
15.56
12.65
9.67
6.57
3.39
0.22
-2.85
-5.80
-8.65
-11.48
-14.41
-17.51
-20.78
-24.13
-27.37
-30.27
-32.55
-33.94
-34.17
-33.06
-30.51
-26.60
-21.62
-16.05
-10.45
-5.32
-0.95
2.63
5.61
8.19
10.48
12.43
13.84
14.53
14.43
13.68
12.55
11.37
10.39
9.73
9.36
9.09
8.70
7.99
6.80
5.11
2.98
0.50
-2.23
-5.17
-8.26
-11.51
-14.88
-18.34
-21.84
-25.29
-28.51
-31.19
-32.92
-33.31
-32.20
-29.80
-26.73
-23.79
-21.62
-20.49
-20.09
-19.76
-18.73
-16.48
-12.86
-8.11
-2.69
2.95
8.45
13.58
18.24
22.32
25.75
28.47
30.43
31.66
32.22
32.23
31.81
31.09
30.20
29.21
28.15
27.05
25.91
24.77
23.65
22.48
21.09
19.19
16.60
13.35
9.77
6.35
3.46
1.21
-0.62
-2.37
-4.23
-6.17
-8.04
-9.72
-11.32
-13.10
-15.28
-17.87
-20.56
-22.92
-24.56
-25.32
-25.30
-24.71
-23.78
-22.65
-21.35
-19.74
-17.61
-14.73
-10.95
-6.35
-1.23
4.01
8.96
13.38
17.20
20.40
22.98
24.82
25.79
25.81
24.93
23.42
21.58
19.68
17.90
16.33
14.98
13.84
12.85
11.85
10.70
9.23
7.51
5.79
4.55
4.17
4.77
6.07
7.48
8.47
8.70
8.22
7.29
6.15
4.84
3.25
1.26
-1.03
-3.33
-5.22
-6.46
-7.08
-7.39
-7.73
-8.20
-8.60
-8.60
-7.88
-6.45
-4.69
-3.26
-2.80
-3.66
-5.71
-8.37
-10.82
-12.42
-12.95
-12.78
-12.65
-13.27
-14.98
-17.50
-20.17
-22.27
-23.49
-24.03
-24.45
-25.27
-26.52
-27.71
-28.02
-26.83
-23.99
-19.94
-15.51
-11.46
-8.14
-5.41
-2.84
-0.03
3.10
6.28
9.09
11.25
12.72
13.80
14.82
16.00
17.26
18.33
18.94
18.95
18.47
17.77
17.11
16.61
16.21
15.71
14.90
13.65
11.92
9.80
7.46
5.10
2.84
0.74
-1.21
-2.97
-4.50
-5.74
-6.64
-7.20
-7.54
-7.76
-7.93
-8.08
-8.16
-8.17
-8.16
-8.19
-8.31
-8.48
-8.63
-8.70
-8.72
-8.78
-9.04
-9.61
-10.52
-11.70
-12.99
-14.15
-14.89
-14.97
-14.24
-12.79
-10.96
-9.24
-8.07
-7.65
-7.85
-8.31
-8.66
-8.63
-8.19
-7.41
-6.36
-4.97
-3.13
-0.78
1.96
4.74
7.11
8.69
9.35
9.25
8.75
8.32
8.31
8.80
9.63
10.48
10.98
10.85
9.96
8.39
6.42
4.53
3.19
2.79
3.36
4.54
5.64
5.98
5.17
3.32
0.96
-1.25
-2.80
-3.57
-3.79
-3.91
-4.24
-4.94
-5.95
-7.13
-8.33
-9.47
-10.48
-11.28
-11.84
-12.18
-12.41
-12.73
-13.31
-14.20
-15.32
-16.42
-17.29
-17.89
-18.36
-18.89
-19.65
-20.51
-21.17
-21.22
-20.34
-18.47
-15.85
-12.88
-10.00
-7.49
-5.44
-3.76
-2.23
-0.59
1.42
3.93
6.91
10.13
13.14
15.38
16.39
15.99
14.42
12.26
10.25
8.97
8.67
9.16
10.01
10.70
10.86
10.39
9.38
8.07
6.67
5.33
4.09
2.92
1.76
0.63
-0.37
-0.98
-0.95
-0.15
1.28
2.92
4.18
4.50
3.57
1.47
-1.33
-4.26
-6.83
-8.85
-10.46
-11.96
-13.62
-15.46
-17.30
-18.76
-19.56
-19.58
-18.95
-17.95
-16.83
-15.72
-14.51
-13.01
-10.98
-8.36
-5.29
-2.11
0.75
2.94
4.31
4.99
5.26
5.44
5.73
6.21
6.91
7.90
9.34
11.37
13.99
16.99
19.93
22.31
23.81
24.40
24.26
23.61
22.58
21.12
19.15
16.68
13.93
11.21
8.86
7.02
5.67
4.64
3.73
2.84
1.96
1.14
0.42
-0.20
-0.76
-1.29
-1.84
-2.43
-3.10
-3.85
-4.66
-5.51
-6.41
-7.41
-8.63
-10.12
-11.78
-13.31
-14.25
-14.19
-13.01
-10.99
-8.71
-6.86
-5.94
-6.07
-7.06
-8.54
-10.21
-11.90
-13.58
-15.16
-16.43
-17.02
-16.54
-14.77
-11.77
-7.87
-3.56
0.67
4.46
7.67
10.29
12.38
14.00
15.17
15.89
16.15
16.04
15.69
15.31
15.07
15.13
15.51
16.12
16.80
17.33
17.61
17.64
17.49
17.28
17.06
16.78
16.35
15.67
14.67
13.41
11.97
10.46
8.91
7.35
5.79
4.31
3.03
2.11
1.65
1.60
1.84
2.10
2.17
1.88
1.26
0.52
0.04
0.17
1.07
2.62
4.44
6.04
7.05
7.42
7.33
7.10
6.93
6.84
6.65
6.15
5.21
3.75
1.77
-0.69
-3.58
-6.79
-10.08
-13.12
-15.65
-17.49
-18.56
-18.83
-18.27
-16.79
-14.34
-11.02
-7.09
-2.90
1.17
4.86
8.01
10.56
12.43
13.60
14.10
14.02
13.56
12.97
12.48
12.20
12.18
12.37
12.69
13.01
13.23
13.23
12.95
12.43
11.83
11.41
11.43
12.02
13.09
14.30
15.21
15.38
14.56
12.72
10.07
6.95
3.76
0.86
-1.50
-3.20
-4.28
-4.89
-5.26
-5.62
-6.12
-6.79
-7.51
-8.18
-8.65
-8.91
-9.08
-9.29
-9.68
-10.26
-10.95
-11.62
-12.16
-12.56
-12.94
-13.44
-14.16
-15.13
-16.33
-17.71
-19.21
-20.77
-22.26
-23.50
-24.24
-24.25
-23.41
-21.75
-19.38
-16.47
-13.18
-9.59
-5.67
-1.39
3.16
7.65
11.54
14.26
15.41
15.08
13.77
12.20
11.03
10.52
10.51
10.64
10.62
10.38
10.11
10.04
10.35
11.02
11.87
12.65
13.14
13.18
12.71
11.83
10.73
9.63
8.67
7.83
6.94
5.85
4.50
3.05
1.77
0.92
0.57
0.59
0.66
0.53
0.08
-0.64
-1.41
-2.06
-2.45
-2.67
-2.84
-3.10
-3.50
-4.05
-4.68
-5.37
-6.18
-7.20
-8.44
-9.84
-11.22
-12.41
-13.31
-14.03
-14.81
-15.91
-17.50
-19.55
-21.85
-24.08
-25.89
-27.04
-27.38
-26.81
-25.36
-23.07
-20.11
-16.71
-13.15
-9.68
-6.41
-3.26
-0.00
3.54
7.43
11.42
15.10
17.98
19.82
20.63
20.77
20.65
20.54
20.49
20.24
19.50
18.09
16.11
13.91
11.91
10.43
9.53
9.04
8.64
8.07
7.22
6.17
5.09
4.17
3.44
2.86
2.28
1.59
0.75
-0.23
-1.24
-2.20
-3.04
-3.76
-4.40
-4.97
-5.39
-5.52
-5.15
-4.11
-2.41
-0.29
1.76
3.24
3.73
3.15
1.74
-0.04
-1.74
-3.12
-4.15
-5.02
-5.93
-6.93
-7.95
-8.85
-9.60
-10.39
-11.56
-13.43
-16.07
-19.20
-22.22
-24.50
-25.61
-25.39
-23.95
-21.47
-17.99
-13.54
-8.21
-2.36
3.30
7.93
10.87
11.94
11.49
10.23
8.93
8.07
7.78
7.90
8.19
8.48
8.76
9.11
9.55
10.07
10.58
10.95
11.08
10.97
10.62
10.11
9.55
9.02
8.56
8.14
7.67
7.00
6.08
4.94
3.75
2.73
2.01
1.56
1.23
0.80
0.17
-0.61
-1.30
-1.68
-1.65
-1.33
-1.06
-1.21
-2.01
-3.47
-5.35
-7.28
-8.89
-9.85
-9.96
-9.17
-7.55
-5.38
-3.05
-1.08
-0.01
-0.19
-1.73
-4.45
-7.93
-11.68
-15.25
-18.33
-20.70
-22.20
-22.75
-22.36
-21.13
-19.32
-17.18
-14.94
-12.64
-10.20
-7.53
-4.61
-1.62
1.15
3.45
5.20
6.49
7.50
8.38
9.18
9.82
10.22
10.42
10.56
10.78
11.17
11.60
11.82
11.61
10.95
10.04
9.27
8.97
9.24
9.89
10.55
10.85
10.62
9.90
8.85
7.67
6.44
5.14
3.79
2.55
1.74
1.68
2.58
4.36
6.63
8.78
10.32
10.97
10.78
9.98
8.76
7.16
5.08
2.44
-0.70
-4.05
-7.18
-9.80
-11.79
-13.27
-14.44
-15.45
-16.34
-17.08
-17.67
-18.21
-18.88
-19.90
-21.46
-23.56
-26.07
-28.60
-30.53
-31.18
-30.01
-26.80
-21.81
-15.68
-9.18
-2.94
2.72
7.74
12.10
15.67
18.18
19.36
19.15
17.87
16.09
14.50
13.56
13.42
13.93
14.75
15.59
16.27
16.76
17.10
17.33
17.44
17.36
16.97
16.20
15.03
13.55
11.96
10.46
9.25
8.40
7.83
7.40
6.94
6.34
5.63
4.92
4.31
3.88
3.57
3.27
2.87
2.32
1.65
0.96
0.36
-0.13
-0.55
-0.95
-1.45
-2.06
-2.81
-3.70
-4.75
-6.03
-7.58
-9.35
-11.24
-13.06
-14.66
-15.96
-17.03
-18.06
-19.28
-20.87
-22.89
-25.17
-27.30
-28.69
-28.71
-26.94
-23.34
-18.29
-12.46
-6.51
-0.92
4.18
8.85
13.17
17.08
20.33
22.61
23.73
23.62
22.39
20.30
17.64
14.84
12.40
10.78
10.23
10.66
11.67
12.67
13.20
13.06
12.37
11.40
10.37
9.35
8.30
7.21
6.27
5.83
6.25
7.57
9.37
10.92
11.40
10.42
8.13
5.20
2.50
0.62
-0.28
-0.54
-0.66
-1.06
-1.87
-2.96
-4.09
-5.12
-6.01
-6.83
-7.67
-8.56
-9.42
-10.16
-10.73
-11.15
-11.57
-12.17
-13.09
-14.33
-15.76
-17.20
-18.54
-19.78
-21.05
-22.50
-24.15
-25.84
-27.26
-28.00
-27.63
-25.79
-22.21
-16.83
-9.86
-1.94
5.99
12.79
17.56
19.89
20.04
18.79
17.14
15.87
15.30
15.34
15.61
15.74
15.55
15.07
14.43
13.74
13.08
12.50
12.19
12.42
13.46
15.37
17.81
20.11
21.45
21.20
19.24
15.97
12.17
8.65
5.93
4.10
2.93
2.00
0.99
-0.21
-1.51
-2.70
-3.58
-4.03
-4.09
-3.89
-3.61
-3.43
-3.47
-3.82
-4.54
-5.58
-6.79
-7.95
-8.80
-9.19
-9.13
-8.72
-8.17
-7.66
-7.33
-7.36
-7.96
-9.35
-11.64
-14.74
-18.33
-21.96
-25.15
-27.57
-29.01
-29.34
-28.46
-26.28
-22.83
-18.31
-13.12
-7.72
-2.57
2.01
5.84
8.91
11.28
13.07
14.40
15.36
16.00
16.36
16.47
16.44
16.43
16.58
16.95
17.49
18.02
18.34
18.32
17.92
17.22
16.33
15.35
14.29
13.10
11.74
10.23
8.70
7.38
6.43
5.87
5.50
5.02
4.18
3.00
1.73
0.81
0.55
0.97
1.74
2.40
2.51
1.94
0.77
-0.71
-2.23
-3.63
-4.73
-5.40
-5.49
-4.97
-4.04
-3.17
-2.95
-3.83
-5.91
-8.89
-12.18
-15.20
-17.60
-19.35
-20.70
-21.91
-23.17
-24.53
-25.88
-27.04
-27.83
-28.05
-27.51
-26.03
-23.55
-20.12
-15.92
-11.21
-6.34
-1.60
2.72
6.38
9.18
11.02
11.91
12.01
11.59
11.05
10.81
11.26
12.58
14.71
17.32
19.86
21.81
22.84
22.96
22.49
21.85
21.34
21.05
20.81
20.42
19.72
18.62
17.13
15.21
12.82
9.98
6.90
3.92
1.46
-0.18
-0.94
-1.05
-0.87
-0.78
-1.01
-1.65
-2.65
-3.94
-5.40
-6.88
-8.15
-8.94
-9.04
-8.32
-6.87
-5.01
-3.19
-1.94
-1.70
-2.66
-4.71
-7.49
-10.53
-13.42
-15.98
-18.24
-20.33
-22.25
-23.75
-24.37
-23.69
-21.55
-18.32
-14.69
-11.46
-9.08
-7.47
-6.12
-4.42
-2.00
1.03
4.16
6.84
8.70
9.80
10.44
11.02
11.73
12.48
13.03
13.15
12.74
11.89
10.84
9.82
9.05
8.74
9.00
9.91
11.31
12.83
13.97
14.27
13.54
11.94
9.90
7.86
6.09
4.60
3.27
2.02
0.88
0.02
-0.43
-0.48
-0.39
-0.50
-1.10
-2.24
-3.72
-5.19
-6.30
-6.87
-6.98
-6.87
-6.85
-7.17
-7.92
-9.07
-10.52
-12.17
-13.90
-15.52
-16.83
-17.61
-17.83
-17.69
-17.62
-18.09
-19.34
-21.27
-23.38
-25.05
-25.80
-25.48
-24.25
-22.38
-20.10
-17.39
-14.13
-10.22
-5.71
-0.89
3.81
8.00
11.40
14.03
16.07
17.77
19.29
20.73
22.14
23.56
25.03
26.48
27.67
28.26
27.88
26.35
23.77
20.50
16.97
13.52
10.33
7.46
4.91
2.76
1.05
-0.22
-1.19
-2.05
-2.96
-3.90
-4.73
-5.27
-5.42
-5.18
-4.65
-3.99
-3.31
-2.69
-2.18
-1.81
-1.65
-1.69
-1.86
-2.06
-2.12
-1.95
-1.58
-1.14
-0.88
-1.07
-1.86
-3.29
-5.25
-7.53
-9.92
-12.36
-14.85
-17.48
-20.31
-23.29
-26.29
-29.18
-31.79
-33.95
-35.47
-36.10
-35.53
-33.51
-29.95
-24.98
-19.06
-12.80
-6.84
-1.71
2.35
5.36
7.56
9.23
10.64
11.90
13.03
14.02
14.80
15.39
15.73
15.83
15.69
15.44
15.22
15.18
15.36
15.65
15.93
16.06
16.06
16.03
16.05
16.08
15.97
15.52
14.65
13.49
12.27
11.27
10.62
10.22
9.82
9.19
8.20
6.87
5.36
3.91
2.68
1.78
1.13
0.57
-0.09
-1.02
-2.29
-3.89
-5.78
-7.85
-9.95
-11.81
-13.18
-13.82
-13.69
-12.97
-12.07
-11.45
-11.47
-12.26
-13.71
-15.61
-17.75
-20.03
-22.42
-24.90
-27.36
-29.48
-30.78
-30.69
-28.74
-24.76
-19.01
-12.11
-4.88
1.92
7.77
12.52
16.24
19.08
21.16
22.53
23.16
23.19
22.82
22.32
21.94
21.78
21.75
21.74
21.65
21.49
21.40
21.55
21.99
22.62
23.17
23.28
22.70
21.36
19.42
17.21
15.08
13.27
11.87
10.79
9.85
8.91
7.88
6.78
5.65
4.57
3.54
2.61
1.74
0.95
0.22
-0.46
-1.12
-1.83
-2.68
-3.76
-5.08
-6.58
-8.14
-9.58
-10.78
-11.74
-12.55
-13.33
-14.21
-15.18
-16.19
-17.15
-18.03
-18.88
-19.83
-21.06
-22.64
-24.54
-26.53
-28.25
-29.23
-29.06
-27.47
-24.44
-20.11
-14.81
-8.92
-2.80
3.23
8.89
13.97
18.31
21.79
24.35
25.96
26.68
26.63
26.01
25.08
24.07
23.19
22.51
22.07
21.82
21.70
21.60
21.38
20.86
20.00
18.99
18.17
17.99
18.66
20.04
21.63
22.75
22.83
21.59
19.16
15.92
12.36
8.96
6.04
3.76
2.12
1.00
0.21
-0.46
-1.18
-2.02
-3.08
-4.42
-6.08
-8.02
-10.07
-11.97
-13.44
-14.41
-15.00
-15.51
-16.28
-17.47
-19.07
-20.87
-22.63
-24.23
-25.69
-27.17
-28.86
-30.77
-32.71
-34.27
-34.96
-34.33
-32.16
-28.50
-23.63
-17.94
-11.89
-5.82
-0.07
5.13
9.58
13.14
15.79
17.60
18.71
19.23
19.26
18.90
18.31
17.79
17.70
18.35
19.80
21.80
23.89
25.54
26.37
26.24
25.22
23.56
21.53
19.41
17.44
15.79
14.55
13.69
12.99
12.16
10.90
9.09
6.80
4.29
1.85
-0.26
-1.94
-3.21
-4.11
-4.69
-5.01
-5.11
-5.10
-5.20
-5.63
-6.51
-7.80
-9.28
-10.65
-11.68
-12.37
-12.88
-13.48
-14.35
-15.56
-17.01
-18.50
-19.84
-21.03
-22.11
-23.25
-24.58
-26.11
-27.71
-29.17
-30.16
-30.42
-29.69
-27.80
-24.67
-20.34
-15.00
-8.99
-2.73
3.30
8.68
13.15
16.55
18.85
20.11
20.42
19.95
18.93
17.66
16.43
15.46
14.86
14.63
14.70
14.97
15.29
15.49
15.45
15.07
14.41
13.61
12.85
12.25
11.76
11.23
10.49
9.42
8.06
6.52
4.95
3.49
2.21
1.15
0.28
-0.40
-0.93
-1.35
-1.71
-2.01
-2.30
-2.61
-2.98
-3.45
-3.97
-4.48
-4.88
-5.17
-5.47
-5.99
-6.90
-8.24
-9.87
-11.51
-12.89
-13.91
-14.66
-15.33
-16.16
-17.26
-18.62
-20.12
-21.62
-22.99
-24.12
-24.87
-25.00
-24.23
-22.33
-19.21
-15.02
-10.17
-5.15
-0.45
3.62
6.95
9.64
11.85
13.73
15.32
16.57
17.37
17.64
17.40
16.85
16.26
15.92
15.99
16.36
16.76
16.81
16.31
15.26
13.91
12.62
11.62
10.95
10.43
9.80
8.85
7.47
5.75
3.84
1.94
0.16
-1.37
-2.64
-3.64
-4.42
-5.04
-5.59
-6.20
-7.07
-8.36
-10.13
-12.22
-14.22
-15.60
-15.95
-15.18
-13.62
-11.93
-10.77
-10.51
-11.18
-12.46
-13.92
-15.30
-16.54
-17.80
-19.24
-20.88
-22.53
-23.89
-24.57
-24.31
-23.04
-20.81
-17.78
-14.09
-9.88
-5.27
-0.42
4.43
8.90
12.66
15.45
17.20
17.98
18.04
17.66
17.13
16.65
16.34
16.21
16.18
16.18
16.16
16.11
16.01
15.85
15.57
15.05
14.28
13.25
12.10
10.94
9.91
9.06
8.35
7.73
7.14
6.50
5.78
4.97
4.11
3.32
2.67
2.22
1.92
1.70
1.42
0.98
0.31
-0.62
-1.86
-3.40
-5.16
-6.97
-8.58
-9.76
-10.46
-10.86
-11.30
-12.12
-13.49
-15.34
-17.44
-19.48
-21.26
-22.80
-24.23
-25.74
-27.44
-29.30
-31.16
-32.75
-33.71
-33.76
-32.60
-30.10
-26.25
-21.22
-15.35
-9.16
-3.15
2.23
6.71
10.23
12.95
15.06
16.75
18.10
19.13
19.80
20.11
20.12
19.89
19.54
19.17
18.83
18.57
18.36
18.13
17.82
17.41
16.92
16.44
16.01
15.62
15.19
14.66
13.97
13.14
12.21
11.24
10.23
9.15
7.99
6.78
5.57
4.42
3.38
2.50
1.79
1.24
0.79
0.29
-0.43
-1.47
-2.85
-4.38
-5.84
-7.04
-7.95
-8.75
-9.66
-10.85
-12.38
-14.16
-15.98
-17.73
-19.36
-20.91
-22.49
-24.20
-26.07
-28.06
-30.02
-31.79
-33.14
-33.83
-33.58
-32.02
-28.88
-24.02
-17.60
-10.13
-2.35
4.95
11.17
16.08
19.75
22.42
24.34
25.61
26.23
26.19
25.59
24.63
23.61
22.78
22.29
22.13
22.20
22.35
22.42
22.35
22.09
21.62
20.93
20.01
18.88
17.60
16.26
14.99
13.85
12.90
12.09
11.38
10.67
9.91
9.06
8.15
7.20
6.27
5.38
4.52
3.62
2.63
1.50
0.26
-1.00
-2.16
-3.11
-3.83
-4.42
-5.07
-5.95
-7.17
-8.71
-10.45
-12.21
-13.81
-15.21
-16.44
-17.62
-18.90
-20.35
-22.00
-23.79
-25.59
-27.18
-28.28
-28.53
-27.55
-25.03
-20.83
-15.11
-8.32
-1.13
5.73
11.66
16.33
19.73
22.02
23.45
24.28
24.64
24.62
24.29
23.71
22.94
22.09
21.24
20.46
19.74
19.04
18.29
17.44
16.49
15.51
14.60
13.79
13.05
12.28
11.29
9.99
8.37
6.56
4.77
3.19
1.91
0.89
-0.04
-1.01
-2.11
-3.34
-4.59
-5.77
-6.86
-7.90
-9.01
-10.22
-11.48
-12.67
-13.66
-14.43
-15.07
-15.79
-16.80
-18.21
-20.03
-22.16
-24.43
-26.66
-28.70
-30.41
-31.67
-32.30
-32.06
-30.72
-28.07
-24.08
-18.98
-13.15
-7.11
-1.31
4.00
8.75
12.97
16.67
19.76
22.10
23.55
24.16
24.09
23.66
23.17
22.81
22.64
22.60
22.56
22.43
22.12
21.55
20.74
19.71
18.53
17.28
16.02
14.79
13.59
12.42
11.27
10.17
9.12
8.12
7.15
6.17
5.16
4.16
3.27
2.55
2.01
1.58
1.06
0.32
-0.70
-1.91
-3.19
-4.42
-5.65
-7.04
-8.73
-10.79
-13.08
-15.30
-17.10
-18.30
-18.90
-19.12
-19.32
-19.83
-20.86
-22.49
-24.66
-27.21
-29.85
-32.19
-33.74
-33.99
-32.53
-29.24
-24.29
-18.17
-11.53
-5.00
0.92
5.99
10.21
13.67
16.46
18.64
20.22
21.20
21.61
21.56
21.15
20.45
19.49
18.37
17.20
16.18
15.42
14.97
14.73
14.49
14.02
13.21
12.06
10.67
9.20
7.81
6.61
5.68
5.03
4.66
4.48
4.36
4.18
3.86
3.37
2.76
2.17
1.70
1.38
1.15
0.84
0.26
-0.69
-1.96
-3.38
-4.75
-6.00
-7.18
-8.46
-9.96
-11.69
-13.49
-15.17
-16.59
-17.74
-18.75
-19.77
-20.90
-22.19
-23.64
-25.25
-26.98
-28.72
-30.24
-31.22
-31.33
-30.31
-28.03
-24.49
-19.86
-14.41
-8.54
-2.70
2.70
7.38
11.25
14.39
16.94
18.97
20.42
21.19
21.22
20.61
19.65
18.62
17.80
17.24
16.88
16.56
16.17
15.68
15.12
14.53
13.91
13.20
12.36
11.38
10.33
9.30
8.37
7.55
6.81
6.07
5.33
4.65
4.11
3.78
3.69
3.78
3.96
4.07
4.00
3.70
3.13
2.36
1.47
0.52
-0.44
-1.42
-2.49
-3.72
-5.17
-6.86
-8.71
-10.62
-12.46
-14.16
-15.71
-17.18
-18.72
-20.47
-22.53
-24.85
-27.19
-29.21
-30.52
-30.76
-29.72
-27.33
-23.69
-19.03
-13.68
-8.05
-2.59
2.32
6.41
9.60
12.01
13.83
15.20
16.13
16.54
16.34
15.60
14.52
13.46
12.73
12.48
12.67
13.05
13.39
13.48
13.28
12.86
12.30
11.69
11.00
10.15
9.09
7.84
6.49
5.27
4.32
3.71
3.35
3.06
2.63
1.92
0.90
-0.37
-1.80
-3.27
-4.68
-5.95
-7.03
-7.92
-8.69
-9.40
-10.13
-10.91
-11.79
-12.81
-13.98
-15.31
-16.75
-18.19
-19.52
-20.68
-21.75
-22.92
-24.34
-26.07
-27.88
-29.35
-29.95
-29.21
-26.95
-23.21
-18.34
-12.78
-7.01
-1.38
3.82
8.48
12.49
15.78
18.32
20.07
21.07
21.40
21.25
20.80
20.28
19.82
19.49
19.27
19.08
18.83
18.44
17.91
17.24
16.49
15.67
14.78
13.79
12.72
11.60
10.48
9.39
8.32
7.26
6.22
5.30
4.63
4.32
4.36
4.60
4.82
4.83
4.55
3.98
3.16
2.14
0.96
-0.36
-1.72
-2.99
-4.11
-5.07
-5.95
-6.89
-8.01
-9.42
-11.11
-13.00
-14.96
-16.84
-18.52
-19.93
-21.13
-22.29
-23.59
-25.19
-27.10
-29.18
-31.09
-32.43
-32.68
-31.47
-28.54
-23.93
-17.97
-11.22
-4.33
2.16
7.88
12.65
16.42
19.20
21.05
22.10
22.55
22.67
22.69
22.76
22.86
22.89
22.72
22.24
21.47
20.50
19.48
18.53
17.72
17.04
16.41
15.72
14.89
13.88
12.72
11.46
10.10
8.68
7.23
5.83
4.62
3.74
3.28
3.17
3.24
3.27
3.09
2.66
2.03
1.30
0.55
-0.22
-1.05
-1.99
-3.06
-4.21
-5.36
-6.43
-7.40
-8.33
-9.31
-10.46
-11.79
-13.25
-14.70
-16.02
-17.18
-18.27
-19.45
-20.88
-22.60
-24.46
-26.11
-27.13
-27.06
-25.62
-22.70
-18.43
-13.16
-7.34
-1.45
4.09
8.98
12.98
15.97
17.92
18.95
19.28
19.19
18.98
18.85
18.85
18.94
19.04
19.09
19.05
18.91
18.67
18.34
17.89
17.38
16.84
16.31
15.75
15.13
14.40
13.54
12.53
11.35
10.00
8.51
6.95
5.44
4.10
2.96
1.97
0.96
-0.21
-1.60
-3.22
-4.98
-6.79
-8.56
-10.24
-11.79
-13.21
-14.53
-15.81
-17.12
-18.50
-19.95
-21.54
-23.33
-25.36
-27.62
-29.93
-31.95
-33.32
-33.68
-32.85
-30.76
-27.49
-23.16
-17.96
-12.11
-5.93
0.24
6.03
11.13
15.30
18.40
20.41
21.43
21.65
21.31
20.63
19.76
18.82
17.88
17.08
16.53
16.30
16.32
16.38
16.31
15.93
15.26
14.37
13.38
12.34
11.24
10.07
8.83
7.57
6.35
5.17
4.05
2.95
1.88
0.78
-0.39
-1.70
-3.14
-4.61
-5.92
-6.88
-7.37
-7.48
-7.46
-7.62
-8.17
-9.16
-10.43
-11.72
-12.87
-13.83
-14.73
-15.76
-17.07
-18.70
-20.58
-22.54
-24.46
-26.26
-27.87
-29.13
-29.75
-29.34
-27.51
-24.08
-19.18
-13.28
-7.04
-1.07
4.22
8.70
12.47
15.69
18.46
20.74
22.41
23.38
23.67
23.44
22.89
22.22
21.52
20.73
19.76
18.53
17.09
15.60
14.24
13.16
12.39
11.86
11.42
10.93
10.30
9.51
8.60
7.58
6.52
5.50
4.58
3.81
3.20
2.66
2.11
1.49
0.78
0.04
-0.70
-1.45
-2.24
-3.09
-3.98
-4.85
-5.62
-6.30
-6.99
-7.85
-9.06
-10.69
-12.70
-14.91
-17.10
-19.10
-20.83
-22.36
-23.84
-25.33
-26.81
-28.07
-28.76
-28.58
-27.29
-24.82
-21.17
-16.50
-10.99
-4.94
1.28
7.21
12.41
16.54
19.44
21.16
21.87
21.84
21.34
20.57
19.67
18.71
17.75
16.81
16.00
15.39
14.99
14.69
14.29
13.62
12.63
11.49
10.52
9.97
9.91
10.15
10.38
10.31
9.86
9.11
8.22
7.33
6.49
5.65
4.78
3.81
2.78
1.69
0.56
-0.62
-1.83
-3.07
-4.37
-5.75
-7.25
-8.81
-10.32
-11.60
-12.53
-13.17
-13.70
-14.42
-15.54
-17.16
-19.16
-21.29
-23.25
-24.71
-25.40
-25.08
-23.56
-20.76
-16.74
-11.73
-6.11
-0.41
4.87
9.28
12.61
14.83
16.11
16.68
16.75
16.43
15.75
14.77
13.56
12.35
11.36
10.78
10.66
10.88
11.25
11.54
11.65
11.54
11.25
10.79
10.13
9.20
7.92
6.32
4.55
2.82
1.38
0.35
-0.31
-0.80
-1.37
-2.21
-3.36
-4.68
-5.99
-7.14
-8.08
-8.94
-9.84
-10.93
-12.25
-13.73
-15.27
-16.76
-18.18
-19.62
-21.22
-23.07
-25.16
-27.34
-29.34
-30.86
-31.64
-31.49
-30.35
-28.19
-25.01
-20.86
-15.90
-10.35
-4.55
1.14
6.40
11.00
14.79
17.71
19.80
21.14
21.90
22.17
22.01
21.44
20.51
19.35
18.17
17.21
16.60
16.35
16.25
16.01
15.40
14.30
12.78
11.03
9.30
7.76
6.53
5.59
4.83
4.12
3.35
2.47
1.52
0.51
-0.60
-1.82
-3.20
-4.69
-6.15
-7.50
-8.66
-9.71
-10.78
-11.98
-13.31
-14.69
-16.03
-17.30
-18.57
-20.00
-21.65
-23.40
-24.94
-25.80
-25.53
-23.82
-20.65
-16.30
-11.24
-6.01
-1.04
3.46
7.47
11.08
14.33
17.16
19.40
20.92
21.65
21.67
21.11
20.14
18.92
17.60
16.32
15.23
14.46
14.08
14.10
14.38
14.68
14.68
14.11
12.80
10.81
8.39
5.94
3.82
2.26
1.23
0.52
-0.12
-0.91
-1.96
-3.24
-4.69
-6.19
-7.63
-8.95
-10.13
-11.21
-12.27
-13.42
-14.77
-16.40
-18.34
-20.55
-22.83
-24.75
-25.80
-25.44
-23.34
-19.52
-14.41
-8.62
-2.80
2.59
7.26
11.07
13.99
15.97
17.04
17.30
16.93
16.22
15.40
14.63
14.00
13.54
13.20
12.94
12.72
12.50
12.30
12.16
12.12
12.15
12.13
11.87
11.20
10.01
8.33
6.27
4.00
1.67
-0.60
-2.77
-4.83
-6.82
-8.77
-10.66
-12.49
-14.22
-15.83
-17.30
-18.70
-20.04
-21.38
-22.63
-23.65
-24.20
-24.03
-22.86
-20.54
-17.06
-12.59
-7.51
-2.26
2.74
7.26
11.24
14.77
17.89
20.55
22.57
23.77
24.08
23.53
22.36
20.87
19.35
18.05
17.08
16.47
16.11
15.81
15.36
14.60
13.53
12.21
10.79
9.36
7.91
6.35
4.55
2.43
0.02
-2.52
-4.99
-7.23
-9.15
-10.82
-12.35
-13.92
-15.64
-17.54
-19.59
-21.65
-23.56
-25.17
-26.27
-26.65
-26.09
-24.40
-21.49
-17.40
-12.37
-6.74
-0.98
4.52
9.47
13.76
17.38
20.42
22.93
24.87
26.14
26.65
26.40
25.49
24.14
22.58
20.97
19.34
17.65
15.82
13.79
11.62
9.39
7.21
5.21
3.37
1.65
-0.05
-1.80
-3.62
-5.46
-7.24
-8.90
-10.47
-12.04
-13.74
-15.62
-17.61
-19.60
-21.42
-22.96
-24.15
-24.95
-25.24
-24.83
-23.46
-20.97
-17.32
-12.69
-7.42
-1.94
3.40
8.34
12.78
16.66
19.97
22.69
24.75
26.03
26.47
26.09
25.03
23.60
22.09
20.77
19.76
19.01
18.35
17.58
16.58
15.31
13.80
12.19
10.57
9.04
7.66
6.47
5.47
4.64
3.93
3.24
2.44
1.39
0.04
-1.55
-3.19
-4.58
-5.46
-5.77
-5.62
-5.34
-5.27
-5.67
-6.63
-8.04
-9.67
-11.28
-12.69
-13.85
-14.84
-15.85
-17.05
-18.56
-20.28
-21.98
-23.36
-24.17
-24.26
-23.53
-21.93
-19.35
-15.77
-11.31
-6.30
-1.24
3.39
7.29
10.37
12.72
14.54
15.96
17.07
17.86
18.35
18.51
18.33
17.81
17.01
15.99
14.85
13.63
12.36
11.06
9.78
8.61
7.66
6.97
6.47
6.03
5.50
4.80
3.92
2.92
1.86
0.80
-0.26
-1.24
-2.05
-2.63
-2.94
-3.07
-3.13
-3.23
-3.47
-3.87
-4.40
-5.00
-5.59
-6.05
-6.36
-6.48
-6.51
-6.60
-6.92
-7.64
-8.83
-10.41
-12.19
-13.87
-15.21
-16.08
-16.58
-16.94
-17.45
-18.31
-19.47
-20.73
-21.84
-22.58
-22.80
-22.44
-21.41
-19.59
-16.92
-13.49
-9.55
-5.52
-1.81
1.32
3.76
5.56
6.85
7.79
8.49
9.03
9.44
9.72
9.86
9.87
9.81
9.72
9.62
9.46
9.11
8.54
7.78
6.98
6.36
6.03
5.96
5.97
5.84
5.45
4.76
3.88
2.94
2.07
1.34
0.79
0.45
0.33
0.36
0.48
0.58
0.57
0.35
-0.12
-0.84
-1.72
-2.60
-3.33
-3.76
-3.86
-3.77
-3.70
-3.86
-4.37
-5.18
-6.14
-7.07
-7.85
-8.46
-9.02
-9.64
-10.43
-11.41
-12.55
-13.77
-15.01
-16.28
-17.56
-18.86
-20.11
-21.15
-21.78
-21.79
-21.03
-19.48
-17.20
-14.37
-11.15
-7.69
-4.13
-0.60
2.73
5.66
8.01
9.68
10.72
11.31
11.64
11.84
11.94
11.88
11.61
11.20
10.77
10.51
10.54
10.85
11.32
11.76
12.05
12.07
11.80
11.17
10.14
8.69
6.93
5.05
3.29
1.84
0.76
-0.00
-0.59
-1.09
-1.55
-1.97
-2.40
-2.91
-3.49
-4.12
-4.66
-5.01
-5.15
-5.23
-5.46
-6.02
-6.92
-8.02
-9.12
-10.09
-10.93
-11.76
-12.66
-13.67
-14.71
-15.69
-16.62
-17.55
-18.68
-20.19
-22.13
-24.42
-26.78
-28.80
-30.08
-30.28
-29.24
-26.96
-23.59
-19.35
-14.54
-9.47
-4.46
0.18
4.30
7.83
10.86
13.47
15.75
17.65
19.10
20.05
20.55
20.69
20.59
20.34
20.03
19.72
19.50
19.44
19.55
19.75
19.87
19.74
19.28
18.54
17.62
