1480547257.00
64.000000
-0.00
-0.00
-0.00
-0.00
-0.00
-0.00
-0.00
-0.00
-0.00
-0.00
0.01
0.01
0.02
0.00
-0.02
-0.06
-0.06
-0.01
0.13
0.37
0.70
1.06
1.38
1.63
1.79
1.92
2.09
2.36
2.81
3.40
4.05
4.65
5.14
5.50
5.79
6.15
6.68
7.51
8.54
9.60
10.48
11.03
11.30
11.49
11.96
12.99
14.89
17.44
20.20
22.63
24.36
25.40
26.21
27.56
30.12
34.49
40.27
46.57
52.27
56.56
59.36
61.42
64.08
68.58
75.90
85.48
95.89
105.35
112.48
117.02
120.02
123.75
127.97
135.66
147.45
162.84
179.61
193.78
200.12
193.53
170.84
132.49
83.45
31.14
-16.56
-54.45
-81.83
-102.40
-122.23
-146.93
-179.49
-219.20
-263.31
-308.14
-350.60
-388.57
-420.55
-444.90
-459.56
-462.51
-452.42
-429.83
-396.91
-356.98
-313.41
-268.69
-224.03
-179.66
-135.42
-91.44
-48.67
-8.64
26.94
56.82
80.60
98.84
112.70
123.49
132.20
139.24
144.47
147.53
148.16
146.41
142.75
137.84
132.41
126.93
121.59
116.34
110.97
105.30
99.29
93.04
86.73
80.56
74.68
69.13
63.90
58.94
54.19
49.63
45.27
41.12
37.20
33.51
30.06
26.83
23.83
21.06
18.51
16.18
14.08
12.18
10.49
9.00
7.69
6.56
5.58
4.74
4.02
3.41
2.90
2.47
2.11
1.82
1.58
1.37
1.21
1.07
0.95
0.86
0.78
0.71
0.65
0.61
0.56
0.53
0.49
0.46
0.44
0.41
0.39
0.37
0.35
0.34
0.32
0.31
0.29
0.28
0.27
0.26
0.25
0.24
0.23
0.22
0.21
0.21
0.20
0.19
0.19
0.18
0.17
0.17
0.16
0.15
0.15
0.14
0.14
0.14
0.13
0.13
0.12
0.12
0.11
0.11
0.11
0.11
0.11
0.12
0.13
0.14
0.16
0.17
0.20
0.22
0.25
0.28
0.32
0.36
0.39
0.43
0.47
0.51
0.55
0.60
0.65
0.70
0.75
0.82
0.88
0.95
1.03
1.12
1.23
1.34
1.46
1.61
1.76
1.94
2.13
2.35
2.60
2.87
3.18
3.50
3.83
4.16
4.49
4.84
5.24
5.70
6.23
6.83
7.46
8.09
8.72
9.35
10.00
10.71
11.53
12.45
13.45
14.47
15.46
16.36
17.15
17.84
18.42
18.86
19.09
18.95
18.20
16.67
14.26
11.02
7.19
3.03
-1.11
-5.03
-8.68
-12.19
-15.70
-19.28
-22.76
-25.84
-28.10
-29.24
-29.25
-28.48
-27.50
-26.94
-27.13
-28.01
-29.12
-29.81
-29.67
-28.58
-26.95
-25.44
-24.66
-25.03
-26.65
-29.45
-33.04
-36.62
-38.88
-38.24
-33.54
-24.66
-12.87
-0.61
9.56
16.00
18.65
19.03
19.12
20.31
22.63
25.10
26.49
26.28
25.02
23.96
24.45
27.18
31.88
37.66
43.34
48.16
51.96
55.00
57.82
61.03
65.11
70.34
76.86
84.73
93.80
103.73
114.09
122.93
128.77
130.74
128.87
124.01
117.46
110.48
103.89
97.93
92.33
86.76
80.75
73.73
65.07
54.20
40.91
25.67
9.85
-4.54
-15.27
-20.99
-21.91
-19.65
-16.50
-13.96
-11.97
-8.76
-2.08
9.44
25.11
42.25
57.46
68.15
73.67
75.21
74.85
74.39
74.75
75.93
77.52
79.28
81.08
82.81
83.90
83.39
80.23
73.97
65.17
55.20
45.72
37.71
30.86
23.38
12.59
-3.96
-27.36
-56.78
-89.77
-123.15
-154.22
-181.34
-203.90
-221.74
-234.72
-242.59
-245.34
-243.61
-238.60
-231.67
-223.75
-215.03
-205.19
-193.76
-180.70
-166.32
-150.96
-134.70
-117.40
-98.98
-79.95
-61.50
-45.18
-32.36
-23.62
-18.71
-16.66
-16.32
-16.70
-17.16
-17.48
-17.58
-17.36
-16.64
-15.20
-12.93
-10.02
-6.91
-4.23
-2.48
-1.80
-1.92
-2.33
-2.52
-2.21
-1.44
-0.39
0.79
1.99
3.20
4.27
5.05
5.34
5.16
4.75
4.49
4.65
5.18
5.74
5.80
4.87
2.71
-0.69
-5.13
-10.24
-15.53
-20.43
-24.24
-26.46
-26.79
-25.26
-22.20
-18.03
-13.25
-8.29
-3.55
0.70
4.35
7.53
10.53
13.59
16.71
19.57
21.66
22.52
22.11
20.87
19.60
19.04
19.67
21.48
24.04
26.72
28.86
29.96
29.86
28.69
26.94
25.25
24.24
24.30
25.39
27.10
28.71
29.51
28.99
27.05
24.00
20.36
16.79
13.77
11.54
10.06
9.07
8.27
7.34
6.06
4.22
1.73
-1.44
-5.11
-8.90
-12.29
-14.85
-16.35
-16.91
-16.94
-16.95
-17.44
-18.73
-20.90
-23.92
-27.61
-31.67
-35.60
-38.69
-40.14
-39.47
-36.70
-32.52
-28.13
-24.70
-22.99
-22.96
-23.97
-25.10
-25.72
-25.66
-25.22
-24.84
-24.73
-24.82
-24.84
-24.60
-24.14
-23.74
-23.70
-24.18
-25.03
-25.86
-26.18
-25.63
-24.20
-22.17
-20.11
-18.57
-17.86
-17.85
-18.09
-18.00
-17.13
-15.46
-13.31
-11.25
-9.91
-9.73
-10.90
-13.22
-16.20
-19.11
-21.17
-21.87
-21.13
-19.36
-17.24
-15.32
-13.68
-11.95
-9.57
-6.21
-2.08
2.05
5.15
6.47
5.75
3.37
0.07
-3.35
-6.31
-8.66
-10.64
-12.93
-16.55
-22.62
-31.91
-44.30
-58.41
-71.78
-81.72
-86.33
-85.55
-81.30
-76.88
-75.58
-79.23
-87.55
-98.13
-107.45
-112.07
-109.79
-100.07
-83.89
-63.21
-40.18
-16.83
5.12
24.21
39.27
49.79
56.26
60.51
65.40
74.15
89.01
110.35
136.35
163.63
188.55
208.51
222.65
231.52
236.30
237.66
235.35
228.29
215.43
196.61
172.87
146.38
119.64
94.70
72.72
53.83
37.48
22.82
9.18
-3.82
-16.10
-27.46
-37.71
-46.93
-55.41
-63.41
-71.03
-77.97
-83.67
-87.45
-88.74
-87.24
-83.01
-76.49
-68.38
-59.60
-51.03
-43.26
-36.45
-30.45
-25.00
-19.93
-15.25
-11.03
-7.20
-3.57
0.18
4.16
8.23
12.09
15.53
18.55
21.41
24.28
27.14
29.70
31.63
32.76
33.24
33.44
33.74
34.36
35.37
36.68
38.18
39.72
41.10
42.08
42.45
42.06
40.91
39.11
36.81
34.18
31.34
28.46
25.68
23.10
20.71
18.40
16.00
13.43
10.82
8.36
6.36
4.98
4.27
4.05
4.06
3.96
3.47
2.41
0.68
-1.66
-4.45
-7.46
-10.38
-12.99
-15.18
-17.07
-18.98
-21.43
-24.84
-29.43
-35.02
-41.09
-46.99
-52.10
-56.09
-58.94
-60.95
-62.47
-63.74
-64.58
-64.43
-62.43
-57.84
-50.38
-40.42
-28.95
-17.24
-6.37
2.98
10.63
16.65
21.20
24.39
26.38
27.48
28.17
28.95
30.13
31.68
33.22
34.27
34.46
33.73
32.36
30.84
29.64
29.05
28.98
29.07
28.66
27.11
23.90
18.83
11.98
3.72
-5.45
-14.80
-23.38
-30.03
-33.69
-33.92
-31.30
-27.56
-25.17
-26.41
-32.64
-43.70
-58.08
-73.54
-87.93
-99.91
-109.33
-117.16
-125.09
-134.83
-147.41
-162.90
-180.41
-198.70
-216.85
-234.88
-253.75
-274.86
-299.26
-326.96
-356.78
-386.50
-413.20
-433.73
-445.06
-444.84
-431.96
-407.06
-372.40
-331.16
-286.38
-239.92
-192.09
-142.11
-89.00
-32.76
25.03
81.36
132.49
175.16
207.52
229.68
243.62
252.46
259.52
267.26
276.92
288.66
302.05
316.70
332.38
348.89
365.68
381.70
395.62
406.23
412.73
414.84
412.57
405.93
394.85
379.29
359.56
336.55
311.79
287.10
264.12
243.90
226.55
211.43
197.48
183.56
168.89
153.17
136.63
119.83
103.42
87.89
73.43
59.86
46.81
33.99
21.43
9.56
-1.02
-9.83
-16.83
-22.50
-27.58
-32.71
-38.11
-43.60
-48.77
-53.36
-57.43
-61.35
-65.58
-70.38
-75.54
-80.44
-84.23
-86.16
-85.85
-83.48
-79.68
-75.36
-71.30
-67.95
-65.29
-62.95
-60.46
-57.52
-54.13
-50.60
-47.37
-44.83
-43.20
-42.45
-42.44
-43.04
-44.21
-46.00
-48.43
-51.43
-54.75
-57.99
-60.70
-62.35
-62.54
-60.92
-57.26
-51.46
-43.55
-33.72
-22.39
-10.18
2.13
13.73
23.97
32.53
39.52
45.39
50.85
56.61
63.22
70.99
79.85
89.38
98.77
106.89
112.61
115.04
113.94
109.80
103.74
97.10
90.94
85.75
81.41
77.38
73.11
68.23
62.59
56.14
48.71
40.07
29.99
18.59
6.39
-5.76
-16.91
-26.39
-33.96
-39.91
-44.81
-49.31
-53.97
-59.02
-64.37
-69.54
-73.87
-76.66
-77.46
-76.16
-73.02
-68.52
-63.17
-57.44
-51.70
-46.23
-41.22
-36.66
-32.38
-28.06
-23.39
-18.26
-12.82
-7.40
-2.33
2.18
6.07
9.33
11.99
14.04
15.49
16.42
16.96
17.24
17.34
17.27
17.00
16.40
15.44
14.09
12.45
10.67
8.93
7.40
6.23
5.45
5.01
4.79
4.62
4.36
3.92
3.24
2.35
1.29
0.12
-1.15
-2.49
-3.83
-5.05
-6.01
-6.65
-7.06
-7.52
-8.38
-9.92
-12.10
-14.67
-17.19
-19.28
-20.70
-21.46
-21.71
-21.71
-21.79
-22.24
-23.38
-25.29
-27.89
-30.83
-33.76
-36.44
-38.95
-41.54
-44.35
-47.23
-49.59
-50.63
-49.67
-46.54
-41.56
-35.44
-28.97
-22.70
-16.86
-11.45
-6.33
-1.51
2.96
7.00
10.52
13.54
16.16
18.45
20.48
22.19
23.49
24.26
24.51
24.34
23.90
23.41
22.97
22.61
22.38
22.26
22.22
22.19
22.03
21.59
20.79
19.64
18.21
16.67
15.07
13.46
11.78
10.02
8.20
6.42
4.78
3.39
2.31
1.50
0.89
0.33
-0.37
-1.30
-2.53
-3.99
-5.57
-7.13
-8.61
-9.96
-11.18
-12.22
-13.04
-13.65
-14.16
-14.79
-15.78
-17.32
-19.47
-22.09
-24.96
-27.86
-30.54
-32.86
-34.79
-36.47
-38.18
-40.26
-42.96
-46.41
-50.31
-54.09
-56.86
-57.71
-55.95
-51.45
-44.69
-36.66
-28.55
-21.37
-15.62
-11.28
-7.95
-5.07
-2.21
0.87
4.21
7.72
11.26
14.57
17.35
19.33
20.34
20.40
19.72
18.71
17.73
17.11
17.00
17.38
18.16
19.13
19.98
20.45
20.30
19.44
17.94
16.01
13.94
12.04
10.52
9.49
8.82
8.24
7.36
5.93
3.98
1.85
0.08
-0.85
-0.79
0.10
1.36
2.50
3.19
3.28
2.76
1.69
0.12
-1.85
-4.08
-6.32
-8.27
-9.67
-10.36
-10.37
-9.91
-9.39
-9.31
-10.07
-11.80
-14.30
-17.13
-19.75
-21.84
-23.35
-24.54
-25.75
-27.19
-28.97
-31.05
-33.36
-35.80
-38.27
-40.49
-42.04
-42.43
-41.23
-38.31
-33.80
-28.21
-22.17
-16.28
-11.02
-6.53
-2.78
0.51
3.63
6.84
10.23
13.69
16.93
19.61
21.40
22.21
22.19
21.64
20.97
20.48
20.27
20.34
20.61
21.01
21.55
22.17
22.80
23.26
23.39
23.13
22.54
21.74
20.79
19.71
18.45
17.06
15.70
14.60
13.91
13.60
13.43
13.12
12.46
11.44
10.20
8.95
7.83
6.94
6.32
5.90
5.51
4.95
3.95
2.38
0.24
-2.25
-4.76
-6.99
-8.76
-10.06
-11.04
-11.96
-13.14
-14.83
-17.21
-20.23
-23.68
-27.25
-30.64
-33.74
-36.64
-39.50
-42.40
-45.12
-47.19
-48.04
-47.23
-44.66
-40.54
-35.35
-29.56
-23.51
-17.39
-11.34
-5.51
-0.11
4.62
8.58
11.78
14.46
16.87
19.25
21.63
23.96
26.04
27.70
28.84
29.37
29.31
28.64
27.41
25.84
24.18
22.75
21.75
21.24
21.06
20.99
20.81
20.34
19.50
18.30
16.82
15.20
13.62
12.27
11.27
10.60
10.14
9.74
9.22
8.47
7.36
5.83
3.84
1.54
-0.83
-2.88
-4.34
-5.12
-5.37
-5.45
-5.79
-6.69
-8.26
-10.39
-12.78
-15.08
-17.05
-18.61
-19.84
-20.94
-22.07
-23.28
-24.47
-25.56
-26.51
-27.45
-28.62
-30.30
-32.73
-36.07
-40.28
-45.01
-49.66
-53.36
-55.28
-54.85
-51.95
-46.99
-40.66
-33.74
-26.84
-20.40
-14.61
-9.54
-5.12
-1.14
2.71
6.74
11.19
16.03
20.94
25.51
29.27
31.88
33.27
33.57
33.05
32.04
30.86
29.72
28.82
28.28
28.12
28.24
28.33
27.97
26.83
24.92
22.56
20.43
19.07
18.71
19.13
19.82
20.17
19.77
18.48
16.42
13.95
11.49
9.47
8.24
7.91
8.34
9.12
9.83
10.09
9.79
8.91
7.44
5.37
2.77
-0.14
-2.83
-4.73
-5.51
-5.25
-4.51
-4.03
-4.43
-6.01
-8.62
-11.87
-15.25
-18.34
-20.85
-22.69
-23.98
-25.03
-26.25
-28.05
-30.57
-33.68
-36.87
-39.49
-40.79
-40.26
-37.65
-33.14
-27.28
-20.82
-14.52
-8.92
-4.21
-0.39
2.78
5.59
8.32
11.16
14.22
17.47
20.70
23.60
25.86
27.31
27.95
27.98
27.63
27.11
26.54
25.90
25.19
24.36
23.39
22.38
21.43
20.65
20.11
19.73
19.34
18.75
17.82
16.61
15.30
14.14
13.31
12.85
12.74
12.87
13.17
13.56
13.90
13.95
13.49
12.34
10.49
8.17
5.73
3.48
1.58
-0.03
-1.51
-3.05
-4.71
-6.39
-7.96
-9.28
-10.39
-11.44
-12.65
-14.16
-15.96
-17.92
-19.90
-21.84
-23.85
-26.07
-28.70
-31.84
-35.42
-39.33
-43.37
-47.29
-50.74
-53.33
-54.60
-54.18
-51.89
-47.88
-42.54
-36.53
-30.46
-24.82
-19.81
-15.30
-10.95
-6.40
-1.45
3.78
8.90
13.45
17.17
20.04
22.37
24.53
26.65
28.72
30.52
31.86
32.65
32.87
32.54
31.74
30.59
29.28
28.12
27.33
26.96
26.86
26.78
26.50
25.96
25.16
24.05
22.54
20.55
18.16
15.75
13.83
12.76
12.59
12.94
13.19
12.88
11.81
10.16
8.29
6.51
4.88
3.24
1.37
-0.86
-3.39
-5.95
-8.29
-10.16
-11.60
-12.74
-13.83
-15.01
-16.37
-17.85
-19.39
-21.00
-22.65
-24.31
-25.92
-27.35
-28.60
-29.77
-31.03
-32.66
-34.81
-37.49
-40.60
-43.91
-47.03
-49.44
-50.55
-49.83
-47.04
-42.39
-36.47
-30.11
-24.08
-18.77
-14.18
-10.01
-5.82
-1.26
3.79
9.28
14.79
19.82
23.80
26.40
27.64
27.93
27.88
28.02
28.61
29.57
30.68
31.73
32.64
33.40
33.96
34.09
33.50
32.01
29.71
27.05
24.61
22.86
21.89
21.52
21.27
20.75
19.81
18.55
17.23
16.12
15.34
14.82
14.42
14.00
13.52
12.97
12.42
11.87
11.28
10.57
9.67
8.65
7.63
6.76
6.16
5.83
5.62
5.24
4.32
2.51
-0.34
-4.06
-8.28
-12.38
-15.86
-18.47
-20.21
-21.38
-22.37
-23.57
-25.35
-28.01
-31.63
-35.97
-40.42
-43.99
-45.68
-44.91
-41.64
-36.48
-30.30
-23.90
-17.84
-12.35
-7.39
-2.87
1.39
5.58
9.84
14.18
18.42
22.20
25.17
27.15
28.17
28.46
28.28
27.82
27.15
26.34
25.43
24.59
23.97
23.74
23.93
24.51
25.22
25.70
25.59
24.70
23.10
21.10
19.11
17.42
16.09
14.97
13.85
12.62
11.34
10.20
9.30
8.67
8.11
7.45
6.60
5.60
4.61
3.83
3.31
2.93
2.33
1.16
-0.76
-3.31
-6.05
-8.41
-10.00
-10.74
-10.95
-11.21
-12.02
-13.61
-15.91
-18.62
-21.44
-24.21
-26.88
-29.46
-31.84
-33.86
-35.41
-36.57
-37.65
-39.14
-41.33
-44.12
-46.95
-48.96
-49.39
-47.72
-43.99
-38.66
-32.37
-25.73
-19.17
-12.97
-7.36
-2.54
1.46
4.77
7.79
10.95
14.56
18.55
22.56
26.05
28.63
30.15
30.73
30.59
29.98
29.08
28.10
27.30
26.96
27.21
27.98
29.02
29.95
30.50
30.48
29.77
28.32
26.15
23.42
20.49
17.82
15.82
14.68
14.32
14.38
14.48
14.19
13.29
11.69
9.49
6.95
4.44
2.34
0.83
-0.03
-0.36
-0.29
0.02
0.35
0.37
-0.27
-1.78
-4.13
-6.94
-9.61
-11.64
-12.85
-13.45
-13.93
-14.70
-15.97
-17.67
-19.56
-21.39
-23.06
-24.56
-25.98
-27.40
-28.95
-30.71
-32.82
-35.37
-38.45
-41.93
-45.40
-48.11
-49.21
-48.00
-44.27
-38.45
-31.49
-24.45
-18.14
-12.87
-8.49
-4.62
-0.89
2.84
6.48
9.86
12.82
15.21
17.07
18.50
19.66
20.70
21.62
22.35
22.77
22.82
22.59
22.35
22.41
22.92
23.78
24.69
25.27
25.30
24.79
23.99
23.14
22.39
21.73
20.99
20.10
19.09
18.16
17.54
17.31
17.43
17.61
17.46
16.75
15.37
13.51
11.46
9.57
8.04
6.92
6.11
5.42
4.73
3.94
3.01
1.89
0.48
-1.31
-3.51
-6.03
-8.64
-11.05
-13.02
-14.48
-15.62
-16.78
-18.45
-20.97
-24.51
-28.89
-33.57
-37.81
-40.76
-41.71
-40.27
-36.57
-31.20
-25.06
-19.08
-13.92
-9.70
-6.13
-2.66
1.20
5.63
10.47
15.35
19.83
23.56
26.26
27.78
28.09
27.39
26.11
24.86
24.23
24.54
25.73
27.41
29.07
30.27
30.76
30.43
29.28
27.40
24.99
22.39
20.06
18.35
17.43
17.16
17.16
17.02
16.42
15.27
13.71
11.98
10.34
8.95
7.83
6.83
5.76
4.46
2.90
1.18
-0.65
-2.59
-4.68
-6.96
-9.32
-11.51
-13.28
-14.52
-15.33
-16.04
-16.95
-18.24
-19.86
-21.67
-23.52
-25.41
-27.45
-29.75
-32.27
-34.88
-37.37
-39.55
-41.45
-43.26
-45.25
-47.59
-50.10
-52.23
-53.13
-51.97
-48.31
-42.36
-34.91
-27.05
-19.73
-13.41
-8.02
-3.16
1.50
6.05
10.24
13.82
16.65
18.89
20.89
22.92
25.03
27.02
28.53
29.28
29.21
28.57
27.68
26.89
26.37
26.15
26.15
26.32
26.59
26.88
27.01
26.69
25.68
23.92
21.62
19.28
17.41
16.31
16.03
16.33
16.83
17.14
16.92
15.92
14.05
11.48
8.53
5.70
3.43
1.91
1.11
0.76
0.59
0.41
0.06
-0.60
-1.73
-3.39
-5.47
-7.60
-9.34
-10.39
-10.74
-10.75
-10.92
-11.70
-13.40
-16.05
-19.36
-22.83
-25.89
-28.07
-29.26
-29.79
-30.30
-31.46
-33.67
-36.73
-40.08
-42.94
-44.61
-44.73
-43.20
-40.10
-35.57
-29.86
-23.29
-16.33
-9.56
-3.42
1.79
6.01
9.44
12.31
14.82
17.00
18.80
20.11
20.95
21.52
22.12
22.97
24.03
25.01
25.49
25.24
24.36
23.27
22.45
22.29
22.77
23.61
24.36
24.69
24.43
23.63
22.50
21.27
20.11
19.16
18.39
17.71
17.04
16.42
15.97
15.84
15.96
16.02
15.56
14.23
12.01
9.31
6.76
4.89
3.89
3.49
3.20
2.59
1.50
0.04
-1.59
-3.32
-5.33
-7.87
-11.10
-14.93
-18.85
-22.23
-24.54
-25.64
-25.98
-26.32
-27.54
-30.12
-34.00
-38.54
-42.87
-46.19
-47.97
-47.99
-46.36
-43.32
-39.32
-34.89
-30.52
-26.54
-22.94
-19.38
-15.41
-10.70
-5.23
0.69
6.61
12.11
16.80
20.36
22.56
23.37
23.05
22.21
21.62
21.88
23.22
25.39
27.83
29.94
31.27
31.55
30.80
29.23
27.19
25.13
23.49
22.53
22.24
22.36
22.54
22.43
21.82
20.63
18.92
16.89
14.82
13.04
11.78
11.07
10.68
10.27
9.49
8.20
6.42
4.26
1.89
-0.60
-3.10
-5.43
-7.43
-8.97
-10.01
-10.67
-11.17
-11.73
-12.57
-13.87
-15.67
-17.92
-20.41
-22.84
-24.92
-26.52
-27.72
-28.75
-29.89
-31.40
-33.50
-36.32
-39.80
-43.61
-47.11
-49.46
-49.90
-48.05
-44.10
-38.69
-32.60
-26.52
-20.80
-15.49
-10.51
-5.82
-1.42
2.70
6.62
10.46
14.34
18.23
21.87
24.88
26.85
27.56
27.08
25.79
24.26
23.11
22.69
23.02
23.88
24.84
25.55
25.84
25.72
25.29
24.71
23.97
23.04
21.89
20.56
19.14
17.83
16.71
15.78
14.98
14.13
13.11
11.85
10.33
8.58
6.72
4.96
3.45
2.38
1.80
1.62
1.63
1.59
1.29
0.59
-0.54
-2.09
-3.98
-6.08
-8.16
-9.98
-11.32
-12.17
-12.67
-13.15
-13.94
-15.18
-16.86
-18.77
-20.69
-22.57
-24.50
-26.66
-29.10
-31.58
-33.62
-34.72
-34.53
-32.97
-30.14
-26.25
-21.40
-15.67
-9.23
-2.40
4.36
10.52
15.70
19.72
22.59
24.46
25.55
26.06
26.25
26.32
26.49
26.81
27.29
27.84
28.39
28.80
28.97
28.78
28.20
27.30
26.26
25.32
24.61
24.08
23.50
22.59
21.18
19.28
17.08
14.90
12.96
11.35
10.06
8.98
8.08
7.44
7.15
7.28
7.70
8.02
7.78
6.64
4.57
1.97
-0.57
-2.52
-3.67
-4.19
-4.43
-4.83
-5.64
-6.93
-8.60
-10.50
-12.44
-14.31
-16.05
-17.67
-19.29
-20.99
-22.74
-24.41
-25.80
-26.90
-27.90
-29.18
-31.11
-33.87
-37.37
-41.31
-45.30
-48.94
-51.83
-53.60
-53.85
-52.30
-48.86
-43.84
-37.79
-31.39
-25.21
-19.54
-14.41
-9.61
-4.89
-0.10
4.85
9.81
14.50
18.64
21.93
24.22
25.55
26.15
26.36
26.54
26.93
27.57
28.31
28.92
29.23
29.20
28.90
28.40
27.74
26.86
25.72
24.43
23.22
22.41
22.15
22.30
22.38
21.88
20.56
18.49
16.17
14.14
12.75
12.08
11.93
12.03
12.16
12.07
11.56
10.49
8.85
6.87
4.95
3.51
2.69
2.39
2.26
1.93
1.19
-0.06
-1.89
-4.31
-7.26
-10.53
-13.69
-16.26
-17.98
-18.93
-19.53
-20.31
-21.61
-23.49
-25.75
-28.10
-30.33
-32.38
-34.32
-36.34
-38.63
-41.33
-44.39
-47.51
-50.04
-51.22
-50.49
-47.64
-42.98
-37.26
-31.25
-25.54
-20.39
-15.71
-11.25
-6.82
-2.32
2.16
6.47
10.49
14.20
17.63
20.80
23.60
25.82
27.20
27.64
27.25
26.39
25.51
24.98
24.91
25.17
25.46
25.46
25.01
24.07
22.88
21.72
20.89
20.53
20.46
20.28
19.53
17.95
15.60
12.91
10.42
8.55
7.43
6.90
6.67
6.52
6.33
6.08
5.68
4.99
3.83
2.20
0.31
-1.49
-2.79
-3.29
-2.94
-1.88
-0.38
1.23
2.63
3.54
3.83
3.50
2.68
1.61
0.51
-0.53
-1.58
-2.79
-4.38
-6.56
-9.49
-13.41
-18.48
-24.67
-31.59
-38.38
-43.91
-47.11
-47.45
-45.10
-40.90
-35.92
-31.10
-26.83
-23.05
-19.39
-15.49
-11.22
-6.62
-1.83
3.00
7.74
12.23
16.23
19.51
22.00
23.81
25.33
27.03
29.23
31.95
34.99
37.86
40.16
41.51
41.74
40.87
39.10
36.82
34.51
32.62
31.37
30.68
30.24
29.64
28.58
26.85
24.47
21.54
18.33
15.20
12.63
11.05
10.57
10.96
11.61
11.88
11.36
10.04
8.23
6.39
4.79
3.41
2.03
0.37
-1.71
-4.08
-6.45
-8.50
-10.01
-11.06
-11.96
-13.12
-14.86
-17.24
-20.07
-23.02
-25.79
-28.26
-30.49
-32.63
-34.92
-37.58
-40.76
-44.51
-48.54
-52.31
-54.99
-55.79
-54.26
-50.49
-45.04
-38.74
-32.37
-26.37
-20.94
-16.01
-11.45
-7.18
-3.08
0.96
5.00
9.10
13.23
17.26
20.94
23.96
25.95
26.65
26.14
24.76
23.19
22.14
22.06
22.96
24.47
26.01
27.17
27.78
27.85
27.52
26.81
25.66
24.08
22.26
20.49
19.11
18.30
17.97
17.90
17.73
17.26
16.39
15.19
13.71
12.09
10.47
9.04
8.01
7.47
7.33
7.30
6.96
5.92
4.04
1.42
-1.60
-4.61
-7.27
-9.38
-10.92
-11.95
-12.70
-13.42
-14.45
-16.10
-18.54
-21.61
-25.00
-28.18
-30.73
-32.41
-33.30
-33.72
-34.06
-34.81
-36.39
-39.15
-43.21
-48.33
-53.85
-58.69
-61.71
-62.07
-59.53
-54.48
-47.82
-40.55
-33.55
-27.31
-21.89
-17.07
-12.50
-7.83
-2.81
2.57
8.19
13.81
19.10
23.85
27.84
30.94
33.04
34.15
34.35
33.95
33.34
32.94
33.05
33.74
34.81
35.89
36.51
36.21
34.80
32.40
29.40
26.36
23.74
21.75
20.31
19.24
18.33
17.50
16.77
16.10
15.38
14.47
13.24
11.77
10.29
9.01
8.11
7.53
7.00
6.31
5.24
3.79
2.09
0.35
-1.26
-2.58
-3.55
-4.21
-4.63
-4.90
-5.12
-5.44
-6.15
-7.61
-10.07
-13.56
-17.71
-21.83
-25.16
-27.19
-27.86
-27.60
-27.16
-27.31
-28.62
-31.32
-35.14
-39.52
-43.65
-46.70
-47.99
-47.12
-44.03
-38.95
-32.39
-24.99
-17.54
-10.84
-5.43
-1.44
1.51
4.18
7.39
11.61
16.76
22.25
27.23
30.95
32.97
33.26
32.20
30.37
28.46
27.09
26.62
27.12
28.41
30.11
31.81
33.10
33.60
32.94
31.00
27.96
24.38
21.08
18.83
17.99
18.38
19.41
20.34
20.65
20.05
18.57
16.36
13.72
10.98
8.53
6.73
5.74
5.50
5.71
6.01
6.07
5.64
4.54
2.72
0.22
-2.76
-5.80
-8.41
-10.30
-11.42
-12.11
-12.91
-14.21
-16.17
-18.62
-21.17
-23.51
-25.51
-27.28
-29.05
-30.99
-33.15
-35.45
-37.86
-40.40
-43.29
-46.68
-50.47
-54.05
-56.55
-56.99
-54.81
-50.10
-43.54
-36.14
-28.78
-21.96
-15.74
-9.95
-4.34
1.19
6.53
11.55
16.10
20.05
23.38
26.17
28.53
30.61
32.41
33.79
34.52
34.44
33.62
32.40
31.29
30.69
30.69
31.04
31.32
31.20
30.63
29.74
28.76
27.76
26.67
25.28
23.54
21.50
19.44
17.69
16.47
15.87
15.83
16.09
16.34
16.22
15.48
14.03
12.05
9.91
8.02
6.65
5.80
5.18
4.44
3.24
1.51
-0.62
-2.96
-5.38
-7.80
-10.24
-12.61
-14.74
-16.46
-17.68
-18.49
-19.16
-20.04
-21.36
-23.18
-25.34
-27.53
-29.48
-30.98
-31.99
-32.71
-33.54
-34.97
-37.49
-41.26
-45.93
-50.66
-54.30
-55.80
-54.60
-50.77
-44.92
-37.94
-30.69
-23.84
-17.83
-12.82
-8.69
-5.15
-1.68
2.20
6.70
11.72
16.88
21.65
25.59
28.42
30.01
30.37
29.70
28.34
26.83
25.74
25.43
25.99
27.18
28.60
29.92
30.92
31.50
31.60
31.19
30.16
28.57
26.62
24.59
22.77
21.34
20.30
19.48
18.62
17.40
15.73
13.68
11.58
9.83
8.80
8.52
8.78
9.19
9.35
9.08
8.37
7.31
6.00
4.51
2.81
1.03
-0.65
-2.01
-2.85
-3.18
-3.12
-3.01
-3.28
-4.32
-6.38
-9.39
-13.09
-16.96
-20.55
-23.58
-26.01
-28.04
-30.00
-32.13
-34.51
-37.06
-39.50
-41.53
-42.78
-42.89
-41.53
-38.54
-33.94
-28.07
-21.45
-14.66
-8.25
-2.52
2.45
6.78
10.66
14.27
17.66
20.82
23.69
26.22
28.36
30.12
31.46
32.33
32.71
32.64
32.18
31.49
30.80
30.27
30.05
30.11
30.32
30.41
30.14
29.38
28.16
26.69
25.17
23.77
22.46
21.11
19.58
17.96
16.45
15.32
14.68
14.29
13.76
12.68
10.97
8.87
6.87
5.38
4.55
4.20
3.94
3.48
2.61
1.34
-0.23
-1.97
-3.72
-5.34
-6.67
-7.63
-8.26
-8.73
-9.30
-10.20
-11.65
-13.78
-16.61
-19.97
-23.54
-26.82
-29.35
-30.89
-31.53
-31.69
-31.95
-32.91
-34.95
-38.23
-42.51
-47.18
-51.35
-54.01
-54.34
-52.01
-47.28
-40.93
-33.96
-27.20
-21.13
-15.83
-11.18
-6.89
-2.78
1.33
5.61
10.10
14.77
19.45
23.85
27.61
30.35
31.82
32.01
31.24
30.08
29.20
29.02
29.68
30.88
32.11
32.89
32.98
32.40
31.37
30.10
28.71
27.20
25.58
23.95
22.42
21.20
20.35
19.80
19.35
18.66
17.45
15.55
13.11
10.40
7.87
5.79
4.26
3.14
2.27
1.54
0.96
0.50
0.05
-0.64
-1.85
-3.66
-5.86
-8.01
-9.72
-10.83
-11.47
-12.03
-12.73
-13.72
-14.91
-16.22
-17.65
-19.31
-21.31
-23.55
-25.80
-27.67
-28.93
-29.66
-30.16
-30.99
-32.68
-35.59
-39.73
-44.82
-50.15
-54.73
-57.53
-57.62
-54.63
-48.85
-41.21
-33.05
-25.68
-19.82
-15.53
-12.22
-9.04
-5.32
-0.80
4.33
9.72
14.97
19.80
23.96
27.18
29.22
29.91
29.39
28.18
27.03
26.56
27.04
28.27
29.68
30.68
30.83
30.02
28.48
26.62
24.92
23.79
23.46
23.81
24.51
25.04
25.02
24.34
23.12
21.63
20.14
18.75
17.43
16.11
14.80
13.59
12.56
11.75
11.08
10.52
10.03
9.66
9.47
9.44
9.41
9.08
8.16
6.50
4.20
1.60
-0.94
-3.16
-5.06
-6.89
-8.98
-11.50
-14.43
-17.50
-20.38
-22.85
-24.84
-26.50
-28.05
-29.74
-31.83
-34.55
-37.99
-42.03
-46.22
-49.80
-51.91
-51.90
-49.50
-44.93
-38.83
-31.92
-24.95
-18.47
-12.81
-8.09
-4.25
-1.06
1.91
5.07
8.75
12.96
17.40
21.59
24.94
27.06
27.84
27.47
26.35
24.95
23.69
22.84
22.59
22.92
23.69
24.64
25.41
25.71
25.37
24.42
23.06
21.54
20.09
18.82
17.75
16.83
15.98
15.08
14.09
12.96
11.67
10.31
8.97
7.77
6.82
6.16
5.74
5.48
5.21
4.75
3.86
2.40
0.36
-2.09
-4.60
-6.74
-8.12
-8.60
-8.24
-7.34
-6.27
-5.45
-5.22
-5.82
-7.36
-9.73
-12.68
-15.81
-18.73
-21.18
-23.13
-24.69
-26.10
-27.61
-29.55
-32.26
-35.96
-40.55
-45.51
-49.92
-52.72
-53.13
-50.94
-46.57
-40.81
-34.51
-28.30
-22.45
-16.99
-11.74
-6.58
-1.40
3.87
9.14
14.34
19.31
23.88
27.90
31.10
33.24
34.15
33.83
32.61
31.07
29.86
29.41
29.81
30.72
31.63
32.09
31.88
31.06
29.87
28.57
27.25
25.89
24.37
22.62
20.76
19.01
17.68
16.98
16.80
16.77
16.40
15.32
13.48
11.22
9.09
7.60
6.95
6.92
7.04
6.87
6.14
4.96
3.63
2.46
1.51
0.66
-0.37
-1.79
-3.55
-5.37
-6.88
-7.79
-8.20
-8.47
-9.14
-10.59
-12.86
-15.57
-18.20
-20.27
-21.67
-22.65
-23.69
-25.23
-27.53
-30.57
-34.11
-37.81
-41.25
-43.91
-45.31
-44.94
-42.48
-37.94
-31.71
-24.55
-17.41
-11.22
-6.51
-3.31
-1.10
0.96
3.66
7.40
12.02
16.90
21.31
24.67
26.74
27.63
27.66
27.23
26.76
26.58
26.89
27.68
28.76
29.77
30.42
30.47
29.84
28.48
26.39
23.72
20.75
18.00
15.99
15.06
15.18
15.96
16.83
17.36
17.32
16.68
15.56
14.06
12.27
10.35
8.47
6.80
5.42
4.30
3.24
2.17
1.01
-0.22
-1.47
-2.72
-4.05
-5.50
-7.09
-8.83
-10.63
-12.37
-13.95
-15.34
-16.68
-18.22
-20.21
-22.69
-25.47
-28.16
-30.44
-32.25
-33.83
-35.68
-38.17
-41.43
-45.23
-49.14
-52.61
-55.15
-56.40
-56.05
-53.97
-50.19
-44.92
-38.49
-31.43
-24.21
-17.40
-11.39
-6.36
-2.18
1.50
5.19
9.24
13.64
18.09
22.08
25.19
27.26
28.39
28.80
28.76
28.35
27.63
26.65
25.59
24.70
24.25
24.36
24.93
25.71
26.31
26.43
25.98
25.08
23.94
22.82
21.85
21.00
20.18
19.33
18.41
17.43
16.39
15.28
14.00
12.46
10.58
8.43
6.27
4.43
3.31
3.08
3.67
4.66
5.44
5.45
4.36
2.26
-0.51
-3.44
-6.15
-8.43
-10.22
-11.55
-12.51
-13.24
-14.02
-15.22
-17.08
-19.65
-22.70
-25.77
-28.41
-30.42
-31.87
-33.14
-34.73
-37.12
-40.64
-45.32
-50.78
-56.19
-60.35
-62.05
-60.49
-55.69
-48.48
-40.18
-32.10
-25.02
-19.16
-14.23
-9.82
-5.55
-1.20
3.38
8.25
13.37
18.55
23.31
27.14
29.67
30.84
30.93
30.48
30.00
29.80
29.90
30.11
30.20
30.10
29.87
29.69
29.72
29.95
30.19
30.22
29.89
29.19
28.28
27.34
26.47
25.63
24.78
23.85
22.84
21.75
20.49
19.00
17.28
15.43
13.72
12.41
11.59
11.17
10.93
10.66
10.24
9.67
8.94
7.94
6.54
4.58
2.12
-0.63
-3.35
-5.78
-7.84
-9.59
-11.20
-12.90
-14.89
-17.32
-20.19
-23.42
-26.79
-30.06
-33.15
-36.08
-39.02
-42.05
-45.01
-47.50
-48.96
-48.92
-47.21
-44.04
-39.81
-34.97
-29.84
-24.49
-18.90
-13.03
-6.95
-0.98
4.47
9.12
12.94
16.14
19.13
22.21
25.41
28.42
30.85
32.40
32.99
32.80
32.07
31.08
30.04
29.14
28.62
28.69
29.41
30.66
32.12
33.37
34.08
34.02
33.05
31.18
28.60
25.67
22.87
20.67
19.26
18.61
18.36
18.06
17.39
16.12
14.25
11.92
9.38
6.94
4.96
3.72
3.26
3.39
3.73
3.83
3.42
2.30
0.46
-1.94
-4.70
-7.45
-9.84
-11.62
-12.83
-13.76
-14.88
-16.64
-19.17
-22.36
-25.91
-29.49
-32.89
-36.09
-39.14
-42.12
-45.09
-48.07
-51.05
-53.98
-56.67
-58.91
-60.36
-60.62
-59.34
-56.32
-51.59
-45.51
-38.68
-31.75
-25.18
-19.12
-13.42
-7.79
-2.05
3.76
9.39
14.48
18.80
22.26
24.94
26.99
28.63
29.96
31.00
31.65
31.75
31.22
30.19
28.98
28.03
27.71
28.06
28.85
29.61
29.91
29.59
28.76
27.69
26.57
25.40
23.98
22.15
19.94
17.64
15.75
14.69
14.52
14.96
15.42
15.36
14.54
13.10
11.34
9.60
8.01
6.50
5.01
3.68
2.73
2.39
2.53
2.62
1.99
0.19
-2.69
-5.99
-8.85
-10.67
-11.40
-11.50
-11.70
-12.57
-14.35
-16.95
-20.06
-23.31
-26.45
-29.28
-31.76
-34.05
-36.35
-38.87
-41.59
-44.19
-46.15
-46.97
-46.32
-44.10
-40.42
-35.43
-29.30
-22.28
-14.69
-6.98
0.34
6.85
12.20
16.25
19.07
20.91
22.15
23.23
24.47
25.99
27.67
29.28
30.67
31.77
32.60
33.12
33.28
33.01
32.34
31.49
30.74
30.28
30.11
30.11
30.00
29.73
29.32
28.88
28.47
28.02
27.37
26.40
25.09
23.53
21.89
20.34
18.97
17.80
16.65
15.26
13.43
11.09
8.42
5.86
3.91
2.85
2.70
3.08
3.49
3.47
2.80
1.51
-0.12
-1.80
-3.40
-4.90
-6.45
-8.23
-10.26
-12.51
-14.81
-17.09
-19.48
-22.23
-25.60
-29.67
-34.25
-38.98
-43.53
-47.75
-51.69
-55.36
-58.59
-60.79
-61.29
-59.55
-55.53
-49.76
-43.16
-36.62
-30.68
-25.40
-20.41
-15.25
-9.59
-3.36
3.14
9.40
14.86
19.01
21.68
22.99
23.39
23.48
23.84
24.76
26.17
27.81
29.26
30.27
30.73
30.65
30.07
29.07
27.69
26.04
24.41
23.07
22.20
21.81
21.60
21.20
20.35
18.96
17.13
15.17
13.32
11.74
10.54
9.77
9.37
9.20
8.90
8.09
6.47
4.06
1.24
-1.32
-3.03
-3.61
-3.23
-2.40
-1.74
-1.71
-2.57
-4.36
-6.90
-9.94
-13.10
-15.93
-18.07
-19.42
-20.14
-20.59
-21.16
-22.03
-23.29
-24.92
-26.83
-28.97
-31.27
-33.58
-35.79
-37.90
-40.08
-42.65
-45.77
-49.25
-52.46
-54.54
-54.70
-52.50
-48.10
-42.04
-35.09
-28.00
-21.24
-15.06
-9.51
-4.54
-0.13
3.74
7.16
10.33
13.46
16.72
20.06
23.20
25.78
27.53
28.45
28.85
29.18
29.76
30.63
31.57
32.15
32.11
31.44
30.35
29.24
28.46
28.21
28.42
28.73
28.64
27.75
25.93
23.44
20.79
18.47
16.74
15.56
14.69
13.90
13.11
12.37
11.73
11.11
10.35
9.26
7.80
6.18
4.63
3.35
2.41
1.69
1.05
0.27
-0.82
-2.27
-4.05
-5.99
-7.88
-9.53
-10.90
-12.11
-13.41
-15.02
-16.95
-19.05
-21.11
-22.98
-24.74
-26.68
-29.09
-32.09
-35.61
-39.22
-42.37
-44.52
-45.23
-44.29
-41.76
-37.80
-32.73
-26.94
-20.84
-14.79
-9.05
-3.65
1.57
6.83
12.23
17.61
22.50
26.41
29.02
30.36
30.85
31.04
31.32
31.84
32.47
32.95
33.12
32.89
32.29
31.44
30.48
29.59
28.99
28.78
28.88
29.08
29.11
28.79
28.17
27.37
26.41
25.23
23.61
21.43
18.85
16.23
14.08
12.72
12.12
11.92
11.69
11.06
9.92
8.41
6.77
5.17
3.71
2.35
0.95
-0.55
-2.14
-3.68
-5.00
-6.12
-7.24
-8.66
-10.67
-13.30
-16.24
-19.06
-21.37
-23.09
-24.48
-25.92
-27.71
-29.82
-31.97
-33.84
-35.21
-36.24
-37.39
-39.23
-42.12
-46.03
-50.33
-54.05
-56.10
-55.86
-53.28
-48.92
-43.70
-38.41
-33.42
-28.60
-23.57
-17.99
-11.81
-5.31
1.15
7.27
12.97
18.24
23.01
27.00
29.83
31.24
31.32
30.60
29.88
29.89
30.93
32.73
34.61
35.81
35.87
34.82
33.12
31.41
30.14
29.46
29.18
28.98
28.59
27.91
26.99
25.93
24.82
23.66
22.38
20.96
19.43
17.93
16.66
15.75
15.19
14.67
13.71
11.86
9.05
5.60
2.24
-0.23
-1.38
-1.26
-0.41
0.41
0.54
-0.38
-2.46
-5.50
-9.10
-12.76
-15.97
-18.30
-19.60
-20.05
-20.00
-19.93
-20.21
-21.11
-22.78
-25.30
-28.53
-32.24
-35.93
-39.13
-41.60
-43.43
-45.12
-47.23
-50.11
-53.65
-57.27
-60.00
-60.87
-59.22
-54.86
-48.18
-40.07
-31.50
-23.39
-16.29
-10.35
-5.37
-1.06
2.91
6.77
10.61
14.43
18.15
21.59
24.61
27.08
28.96
30.28
31.03
31.21
30.84
30.09
29.18
28.43
28.01
27.88
27.89
27.77
27.45
26.99
26.59
26.35
26.27
26.18
25.82
25.03
23.81
22.30
20.86
19.84
19.43
19.56
19.76
19.42
18.02
15.44
12.09
8.68
5.95
4.24
3.45
3.15
2.86
2.32
1.45
0.34
-1.01
-2.74
-5.02
-7.85
-10.95
-13.83
-15.93
-17.00
-17.23
-17.11
-17.28
-18.18
-19.89
-22.20
-24.78
-27.40
-30.03
-32.81
-35.89
-39.23
-42.58
-45.40
-47.11
-47.23
-45.52
-42.11
-37.41
-31.95
-26.26
-20.59
-15.01
-9.38
-3.63
2.23
8.02
13.42
18.16
22.09
25.13
27.39
29.03
30.18
31.03
31.71
32.34
32.94
33.43
33.61
33.27
32.34
30.94
29.43
28.21
27.57
27.56
27.99
28.54
28.83
28.57
27.58
25.85
23.51
20.83
18.14
15.79
13.98
12.72
11.89
11.31
10.85
10.36
9.63
8.45
6.69
4.45
2.12
0.26
-0.72
-0.75
-0.25
0.11
-0.26
-1.62
-3.76
-6.17
-8.35
-10.00
-11.17
-12.17
-13.37
-15.02
-17.13
-19.50
-21.84
-24.04
-26.22
-28.65
-31.60
-35.12
-38.98
-42.87
-46.56
-49.96
-53.05
-55.69
-57.47
-57.83
-56.33
-52.86
-47.80
-41.87
-35.77
-29.96
-24.58
-19.44
-14.20
-8.60
-2.51
3.84
9.98
15.35
19.52
22.37
24.22
25.60
26.97
28.56
30.26
31.76
32.82
33.42
33.70
33.85
33.92
33.79
33.28
32.34
31.09
29.87
28.98
28.55
28.50
28.47
27.99
26.76
24.67
21.93
18.99
16.37
14.46
13.42
13.08
13.10
13.07
12.66
11.74
10.38
8.76
7.04
5.39
3.91
2.62
1.55
0.76
0.24
-0.10
-0.55
-1.48
-3.19
-5.71
-8.71
-11.59
-13.77
-15.00
-15.44
-15.62
-16.15
-17.45
-19.63
-22.53
-25.85
-29.21
-32.31
-34.89
-36.87
-38.41
-39.85
-41.63
-44.03
-46.99
-50.12
-52.78
-54.27
-54.08
-51.96
-47.91
-42.22
-35.45
-28.23
-21.19
-14.78
-9.12
-4.14
0.30
4.33
7.94
11.11
13.83
16.20
18.30
20.24
22.01
23.55
24.83
25.83
26.53
26.96
27.13
27.05
26.83
26.63
26.57
26.73
27.08
27.54
28.01
28.28
28.13
27.38
26.03
24.27
22.51
21.16
20.42
20.21
20.25
20.19
19.85
19.27
18.53
17.68
16.62
15.19
13.36
11.31
9.40
8.02
7.39
7.39
7.63
7.56
6.70
4.87
2.22
-0.89
-3.95
-6.63
-8.86
-10.78
-12.60
-14.46
-16.35
-18.16
-19.83
-21.44
-23.23
-25.43
-28.18
-31.41
-34.96
-38.60
-42.11
-45.26
-47.65
-48.84
-48.36
-45.93
-41.65
-36.00
-29.68
-23.37
-17.49
-12.12
-7.12
-2.27
2.60
7.51
12.36
16.89
20.79
23.75
25.63
26.55
26.86
27.04
27.51
28.33
29.29
30.05
30.33
30.09
29.59
29.07
28.68
28.38
27.99
27.40
26.75
26.22
25.97
25.88
25.53
24.51
22.66
20.23
17.88
16.26
15.68
16.00
16.66
17.07
16.87
16.00
14.59
12.83
10.94
8.99
7.17
5.67
4.61
3.97
3.64
3.36
2.92
2.10
0.73
-1.22
-3.64
-6.20
-8.41
-9.86
-10.46
-10.52
-10.67
-11.58
-13.52
-16.44
-19.92
-23.52
-26.89
-29.94
-32.75
-35.46
-38.20
-41.08
-44.17
-47.46
-50.74
-53.63
-55.60
-56.12
-54.79
-51.56
-46.66
-40.61
-34.00
-27.38
-21.07
-15.17
-9.62
-4.40
0.43
4.80
8.66
12.12
15.42
18.75
22.11
25.31
28.04
30.02
31.19
31.75
31.96
32.01
31.95
31.70
31.23
30.64
30.12
29.95
30.26
30.94
31.77
32.30
32.09
30.88
28.70
25.90
22.99
20.48
18.65
17.47
16.71
16.11
15.55
15.05
14.69
14.39
13.91
12.92
11.20
8.89
6.36
4.13
2.55
1.66
1.21
0.83
0.21
-0.80
-2.17
-3.82
-5.62
-7.50
-9.36
-11.08
-12.53
-13.71
-14.71
-15.79
-17.25
-19.32
-22.04
-25.22
-28.47
-31.35
-33.50
-34.82
-35.48
-35.98
-36.97
-39.06
-42.50
-46.98
-51.54
-54.90
-55.81
-53.65
-48.60
-41.56
-33.73
-26.18
-19.50
-13.84
-9.05
-4.89
-1.10
2.51
6.15
10.02
14.09
18.20
22.04
25.25
27.61
28.97
29.33
28.81
27.67
26.28
25.11
24.56
24.76
25.60
26.72
27.74
28.41
28.64
28.41
27.73
26.61
25.10
23.43
21.94
20.95
20.63
20.90
21.44
21.88
21.79
20.90
19.15
16.71
13.93
11.24
9.00
7.36
6.25
5.43
4.60
3.61
2.46
1.22
-0.04
-1.35
-2.88
-4.74
-6.92
-9.31
-11.69
-13.88
-15.87
-17.73
-19.62
-21.61
-23.68
-25.73
-27.75
-29.82
-32.22
-35.21
-38.94
-43.16
-47.30
-50.57
-52.29
-52.07
-49.97
-46.31
-41.58
-36.13
-30.15
-23.77
-17.09
-10.32
-3.70
2.56
8.32
13.58
18.41
22.79
26.58
29.59
31.63
32.73
33.12
33.24
33.55
34.28
35.26
36.00
35.95
34.81
32.77
30.47
28.69
27.92
28.17
28.95
29.53
29.30
28.02
25.79
23.02
20.17
17.67
15.78
14.61
14.08
14.01
14.15
14.29
14.28
13.91
12.93
11.12
8.45
5.17
1.88
-0.74
-2.21
-2.49
-2.00
-1.43
-1.45
-2.52
-4.73
-7.82
-11.34
-14.73
-17.50
-19.38
-20.45
-21.06
-21.69
-22.75
-24.34
-26.38
-28.70
-31.19
-33.82
-36.62
-39.56
-42.56
-45.57
-48.51
-51.36
-54.05
-56.21
-57.35
-56.88
-54.38
-49.79
-43.57
-36.44
-29.23
-22.52
-16.55
-11.20
-6.10
-0.95
4.30
9.40
13.93
17.53
20.09
21.81
23.05
24.17
25.36
26.60
27.72
28.59
29.19
29.51
29.64
29.55
29.17
28.40
27.21
25.72
24.23
23.12
22.71
23.03
23.76
24.26
23.90
22.33
19.66
16.50
13.65
11.68
10.78
10.64
10.75
10.69
10.30
9.68
9.00
8.28
7.33
5.95
4.11
2.00
0.05
-1.37
-2.13
-2.32
-2.36
-2.67
-3.60
-5.26
-7.54
-10.21
-12.86
-15.18
-16.95
-18.12
-18.92
-19.69
-20.83
-22.57
-25.02
-28.08
-31.59
-35.24
-38.62
-41.20
-42.36
-41.51
-38.41
-33.20
-26.49
-19.17
-12.07
-5.75
-0.37
4.31
8.73
13.27
18.12
23.21
28.18
32.52
35.73
37.44
37.63
36.67
35.17
33.84
33.16
33.26
33.90
34.66
35.07
34.79
33.67
31.70
29.04
26.02
23.07
20.69
19.33
19.12
19.84
21.04
22.05
22.39
21.78
20.20
17.90
15.24
12.56
10.15
8.11
6.37
4.78
3.19
1.49
-0.29
-2.13
-4.01
-5.96
-7.99
-10.07
-12.12
-14.02
-15.73
-17.23
-18.65
-20.16
-21.87
-23.96
-26.59
-29.79
-33.45
-37.30
-40.99
-44.21
-46.96
-49.44
-52.00
-54.89
-58.06
-61.14
-63.58
-64.80
-64.37
-62.20
-58.43
-53.33
-47.25
-40.41
-33.04
-25.42
-17.92
-11.07
-5.33
-0.87
2.59
5.69
9.10
13.21
17.84
22.40
26.22
28.89
30.49
31.48
32.35
33.40
34.51
35.37
35.63
35.18
34.21
33.13
32.32
32.00
32.16
32.55
32.92
33.07
32.88
32.29
31.32
30.00
28.35
26.51
24.58
22.66
20.81
18.93
16.84
14.29
11.07
7.16
2.77
-1.61
-5.44
-8.23
-9.82
-10.46
-10.65
-10.96
-11.76
-13.09
-14.74
-16.48
-18.13
-19.65
-21.03
-22.15
-22.87
-23.11
-23.02
-23.05
-23.77
-25.59
-28.47
-31.96
-35.28
-37.84
-39.47
-40.51
-41.49
-42.81
-44.42
-45.82
-46.32
-45.28
-42.40
-37.67
-31.40
-24.11
-16.38
-8.86
-2.00
3.90
8.83
12.80
15.90
18.12
19.46
20.11
20.42
20.87
21.78
23.18
24.78
26.16
27.11
27.62
27.90
28.17
28.53
28.83
28.91
28.66
28.08
27.28
26.41
25.61
24.93
24.29
23.55
22.49
21.03
19.22
17.36
15.78
14.70
14.10
13.72
13.22
12.38
11.24
9.97
8.80
7.73
6.59
5.14
3.22
0.84
-1.84
-4.55
-7.18
-9.75
-12.53
-15.81
-19.77
-24.33
-29.14
-33.73
-37.64
-40.67
-42.76
-43.92
-44.10
-43.05
-40.56
-36.51
-31.13
-24.91
-18.55
-12.61
-7.38
-2.82
1.41
5.66
10.24
15.12
19.92
23.99
26.72
27.83
27.51
26.43
25.41
25.05
25.54
26.68
28.08
29.44
30.68
31.82
32.89
33.67
33.82
33.05
31.35
29.09
26.96
25.68
25.61
26.66
28.20
29.39
29.56
28.42
26.20
23.44
20.80
18.72
17.41
16.84
16.76
16.79
16.39
15.03
12.40
8.54
3.94
-0.67
-4.57
-7.43
-9.39
-10.91
-12.56
-14.75
-17.65
-21.25
-25.36
-29.66
-33.81
-37.36
-39.99
-41.68
-42.79
-43.89
-45.65
-48.41
-52.13
-56.29
-60.09
-62.64
-63.15
-61.17
-56.63
-49.99
-42.01
-33.65
-25.77
-18.81
-12.85
-7.56
-2.53
2.59
7.88
13.23
18.35
22.99
26.91
30.10
32.60
34.55
36.02
37.04
37.62
37.82
37.75
37.60
37.46
37.26
36.78
35.82
34.26
32.27
30.24
28.56
27.47
26.98
26.80
26.61
26.21
25.52
24.66
23.84
23.18
22.70
22.16
21.18
19.47
16.98
14.02
11.17
8.97
7.73
7.37
7.46
7.47
7.07
6.20
5.02
3.72
2.34
0.72
-1.38
-4.07
-7.30
-10.76
-14.09
-16.96
-19.24
-21.09
-22.87
-24.96
-27.72
-31.34
-35.70
-40.40
-44.76
-47.96
-49.25
-48.20
-44.83
-39.61
-33.29
-26.62
-20.18
-14.28
-9.01
-4.27
0.11
4.35
8.70
13.19
17.72
21.94
25.44
27.93
29.37
29.94
29.94
29.63
29.14
28.57
27.98
27.48
27.06
26.50
25.36
23.22
19.93
15.79
11.51
7.86
5.29
3.69
2.49
0.96
-1.43
-4.80
-8.93
-13.29
-17.32
-20.57
-22.80
-23.95
-24.19
-23.68
-22.68
-21.22
-18.89
-15.26
-10.16
-3.84
3.15
10.21
16.82
22.30
26.05
27.75
27.41
25.45
22.68
19.98
18.00
16.91
15.85
13.91
10.89
7.34
4.00
1.42
-0.36
-1.60
-2.60
-4.98
-9.53
-15.37
-20.44
-22.91
-21.84
-17.06
-8.89
2.05
11.89
17.63
19.22
18.96
19.06
20.63
23.80
28.35
34.03
35.67
29.60
16.61
0.84
-14.14
-26.86
-37.98
-48.81
-60.95
-82.36
-118.53
-168.38
-225.57
-283.80
-339.22
-391.13
-440.23
-448.18
-395.99
-298.90
-193.44
-106.48
-46.62
-11.16
6.35
14.64
22.62
30.89
38.53
45.61
52.90
56.84
58.23
56.99
54.47
53.33
51.95
51.34
56.32
73.51
106.69
155.46
215.34
281.01
347.93
401.79
430.43
426.66
389.38
322.52
234.49
136.12
39.55
-44.32
-109.28
-150.96
-166.30
-153.67
-115.21
-57.64
7.64
67.64
111.50
132.89
131.73
111.80
77.75
32.97
-19.42
-74.25
-122.76
-154.33
-160.70
-139.20
-94.71
-37.60
20.67
71.11
108.04
127.92
127.86
106.44
66.30
15.50
-33.76
-68.70
-80.76
-68.33
-36.52
5.87
49.06
84.63
106.50
111.00
97.24
67.70
28.08
-14.29
-52.48
-82.23
-102.83
-116.10
-124.48
-129.56
-132.17
-133.22
-134.38
-138.49
-148.26
-164.87
-186.60
-208.96
-226.45
-234.78
-232.48
-221.01
-203.77
-184.66
-167.43
-155.61
-152.63
-160.63
-179.22
-204.51
-229.47
-246.10
-248.42
-234.71
-207.56
-172.51
-135.46
-100.85
-71.23
-47.54
-29.76
-17.18
-8.47
-1.88
4.36
11.43
19.53
28.11
36.33
43.81
50.95
58.80
68.65
81.66
98.61
119.95
145.89
176.47
211.31
249.41
289.17
328.72
366.43
401.15
431.95
457.51
475.69
483.73
479.04
460.60
429.85
390.74
348.75
309.21
275.83
250.02
231.21
217.84
208.48
202.30
198.86
197.34
195.96
191.78
181.61
163.24
136.58
103.82
68.56
34.16
2.44
-26.75
-54.84
-83.14
-111.66
-138.81
-162.20
-179.76
-190.89
-196.63
-199.24
-201.11
-204.03
-208.68
-214.78
-221.49
-227.78
-232.79
-235.95
-236.86
-235.17
-230.56
-222.73
-211.58
-197.38
-180.94
-163.54
-146.63
-131.36
-118.24
-107.04
-97.05
-87.60
-78.51
-70.12
-63.16
-58.33
-55.92
-55.77
-57.30
-59.75
-62.38
-64.65
-66.25
-67.16
-67.70
-68.28
-69.31
-70.85
-72.51
-73.57
-73.24
-70.87
-66.24
-59.48
-50.92
-40.98
-30.11
-18.67
-7.02
4.39
15.21
25.12
33.89
41.45
47.79
52.94
56.94
59.80
61.45
61.78
60.65
57.96
53.72
48.15
41.69
34.99
28.75
23.58
19.76
17.20
15.47
14.09
12.73
11.33
10.02
8.92
7.87
6.42
3.96
-0.13
-6.16
-14.04
-23.34
-33.43
-43.65
-53.52
-62.79
-71.58
-80.30
-89.47
-99.52
-110.58
-122.40
-134.54
-146.65
-158.71
-171.14
-184.60
-199.63
-216.26
-233.90
-251.40
-267.39
-280.60
-289.84
-294.11
-292.34
-283.46
-266.50
-240.97
-207.15
-166.31
-120.50
-72.26
-24.03
22.20
65.22
104.70
141.07
175.37
209.15
244.32
282.61
324.80
369.71
413.66
451.02
475.70
483.49
473.59
448.78
414.37
375.93
337.62
301.34
267.20
234.48
202.69
172.04
143.28
117.47
95.58
78.26
65.75
57.59
52.62
49.27
45.89
41.25
34.84
26.81
17.74
8.48
0.09
-6.28
-9.40
-8.24
-2.45
7.33
19.30
30.99
40.11
45.29
46.58
45.22
42.84
40.64
39.02
37.53
35.47
32.44
28.55
24.31
20.34
17.04
14.42
12.19
9.95
7.34
4.25
0.70
-3.18
-7.30
-11.69
-16.54
-21.90
-27.68
-33.54
-39.04
-43.85
-47.87
-51.24
-54.21
-56.92
-59.41
-61.63
-63.64
-65.53
-67.49
-69.66
-72.05
-74.53
-77.06
-79.60
-82.10
-84.38
-86.07
-86.66
-85.66
-82.72
-77.71
-70.69
-61.86
-51.49
-40.01
-27.95
-16.00
-4.83
5.03
13.36
20.36
26.51
32.41
38.53
45.02
51.81
58.63
65.28
71.64
77.64
83.17
87.92
91.47
93.48
93.89
92.87
90.78
87.96
84.57
80.64
76.18
71.27
65.97
60.19
53.57
45.78
36.67
26.71
17.01
9.02
3.98
2.39
3.79
6.84
9.75
10.75
8.58
2.96
-5.44
-15.00
-23.72
-29.80
-32.32
-31.44
-28.23
-24.23
-20.84
-19.03
-19.16
-21.07
-24.07
-27.17
-29.10
-28.80
-25.76
-20.27
-13.34
-6.27
-0.01
5.13
9.55
14.08
19.49
26.16
33.99
42.42
50.68
58.03
64.05
68.71
72.32
75.20
77.41
78.52
77.68
73.94
66.70
55.94
42.23
26.66
10.51
-4.95
-18.67
-29.97
-38.67
-45.20
-50.51
-55.80
-62.02
-69.55
-78.03
-86.54
-93.99
-99.62
-103.16
-104.91
-105.48
-105.48
-105.26
-104.98
-104.57
-103.88
-102.84
-101.27
-99.07
-96.08
-92.25
-87.76
-82.97
-78.28
-73.97
-70.03
-66.10
-61.72
-56.43
-49.98
-42.38
-33.84
-24.72
-15.53
-6.89
0.62
6.56
10.79
13.58
15.47
17.06
18.80
20.83
23.00
25.02
26.51
27.16
26.82
25.55
23.54
21.07
18.40
15.61
12.64
9.28
5.40
0.96
-3.88
-8.92
-14.01
-19.15
-24.45
-30.07
-36.10
-42.54
-49.27
-56.10
-62.81
-69.07
-74.58
-78.95
-81.85
-82.98
-82.25
-79.68
-75.45
-69.82
-62.99
-55.22
-46.80
-38.05
-29.35
-21.02
-13.27
-6.10
0.51
6.66
12.29
17.28
21.53
25.01
27.81
30.01
31.59
32.45
32.56
32.09
31.50
31.43
32.35
34.34
37.00
39.72
41.91
43.23
43.62
43.15
41.98
40.21
38.00
35.60
33.37
31.60
30.46
29.88
29.53
29.03
27.95
26.07
23.44
20.35
17.31
14.83
13.25
12.55
12.47
12.51
12.30
11.64
10.56
9.22
7.80
6.46
5.27
4.32
3.68
3.30
3.11
2.93
2.55
1.80
0.58
-1.19
-3.50
-6.24
-9.20
-12.16
-14.89
-17.35
-19.71
-22.26
-25.27
-28.89
-32.99
-37.31
-41.42
-44.87
-47.24
-48.15
-47.36
-44.85
-40.78
-35.50
-29.47
-23.13
-16.97
-11.41
-6.77
-3.14
-0.32
2.18
4.91
8.18
11.95
15.81
19.21
21.83
23.67
24.99
26.04
26.94
27.55
27.68
27.28
26.53
25.75
25.27
25.20
25.43
25.65
25.58
25.05
24.06
22.73
21.30
20.01
19.02
18.38
17.99
17.66
17.14
16.27
14.97
13.32
11.47
9.56
7.69
6.00
4.59
3.64
3.31
3.60
4.33
5.10
5.41
4.89
3.45
1.28
-1.18
-3.47
-5.30
-6.59
-7.44
-8.06
-8.68
-9.62
-11.22
-13.68
-16.92
-20.56
-23.97
-26.54
-28.00
-28.50
-28.60
-29.00
-30.24
-32.62
-36.08
-40.22
-44.41
-47.86
-49.79
-49.56
-47.03
-42.45
-36.44
-29.77
-23.07
-16.82
-11.26
-6.48
-2.34
1.46
5.35
9.65
14.40
19.30
23.80
27.38
29.84
31.27
31.97
32.26
32.33
32.21
31.92
31.48
30.92
30.32
29.74
29.28
28.99
28.80
28.50
27.79
26.46
24.59
22.55
20.86
19.88
19.57
19.52
19.21
18.37
17.04
15.61
14.47
13.77
13.39
13.06
12.55
11.79
10.94
10.24
9.85
9.77
9.73
9.31
8.19
6.26
3.74
1.12
-1.10
-2.62
-3.49
-4.09
-4.86
-6.11
-7.91
-10.12
-12.53
-15.01
-17.56
-20.21
-22.93
-25.51
-27.64
-29.04
-29.69
-29.92
-30.47
-32.14
-35.40
-40.15
-45.60
-50.50
-53.65
-54.35
-52.55
-48.78
-43.84
-38.37
-32.76
-27.12
-21.48
-16.00
-10.87
-6.27
-2.16
1.68
5.65
9.97
14.57
19.10
23.00
25.76
27.13
27.30
26.70
25.97
25.64
26.04
27.19
28.87
30.67
32.18
33.02
32.93
31.97
30.37
28.58
27.04
26.07
25.68
25.64
25.63
25.37
24.72
23.65
22.18
20.35
18.24
16.04
14.07
12.64
11.86
11.55
11.32
10.76
9.70
8.24
6.67
5.29
4.23
3.43
2.78
2.13
1.38
0.48
-0.59
-1.87
-3.28
-4.77
-6.31
-7.91
-9.69
-11.72
-13.94
-16.15
-18.11
-19.63
-20.72
-21.55
-22.39
-23.58
-25.35
-27.84
-31.06
-34.88
-39.07
-43.36
-47.44
-50.91
-53.43
-54.57
-53.97
-51.45
-47.12
-41.47
-35.24
-29.22
-23.92
-19.39
-15.33
-11.20
-6.57
-1.31
4.40
10.02
14.88
18.49
20.64
21.53
21.68
21.70
22.07
23.03
24.50
26.25
28.01
29.61
30.87
31.62
31.72
31.10
29.87
28.37
27.04
26.25
26.15
26.52
26.96
27.00
26.29
24.77
22.56
19.94
17.22
14.66
12.45
10.76
9.67
9.17
9.15
9.37
9.52
9.27
8.40
6.83
4.67
2.21
-0.21
-2.26
-3.78
-4.85
-5.72
-6.72
-8.10
-9.87
-11.82
-13.67
-15.14
-16.19
-16.99
-17.72
-18.54
-19.49
-20.54
-21.76
-23.35
-25.56
-28.46
-31.88
-35.29
-38.15
-40.18
-41.42
-42.19
-42.81
-43.31
-43.37
-42.49
-40.23
-36.49
-31.56
-25.93
-20.14
-14.51
-9.18
-4.09
0.85
5.69
10.30
14.39
17.72
20.09
21.62
22.63
23.55
24.64
25.91
27.11
27.89
28.09
27.73
27.10
26.54
26.31
26.41
26.70
26.92
26.90
26.58
26.10
25.62
25.30
25.06
24.67
23.85
22.46
20.61
18.65
17.01
15.98
15.62
15.79
16.19
16.52
16.58
16.27
15.59
14.63
13.50
12.37
11.35
10.49
9.82
9.28
8.81
8.29
7.49
6.13
3.97
0.97
-2.60
-6.26
-9.49
-11.97
-13.69
-14.98
-16.30
-17.97
-20.08
-22.43
-24.77
-26.95
-29.08
-31.42
-34.27
-37.83
-41.98
-46.42
-50.69
-54.24
-56.63
-57.58
-56.95
-54.80
-51.34
-46.89
-41.84
-36.50
-31.06
-25.58
-20.04
-14.39
-8.71
-3.13
2.15
6.85
10.66
13.34
14.77
15.05
14.58
13.97
13.79
14.37
15.59
16.96
17.97
18.28
17.96
17.39
17.03
17.09
17.55
18.16
18.64
18.80
18.52
17.78
16.69
15.44
14.40
14.03
14.74
16.66
19.61
23.14
26.73
30.05
32.89
35.26
37.22
38.90
40.43
42.01
43.82
45.87
48.02
49.92
51.10
51.20
49.94
47.31
43.58
39.24
34.82
30.81
27.40
24.42
21.44
17.97
13.68
8.54
2.69
-3.63
-10.20
-16.84
-23.41
-29.69
-35.47
-40.63
-45.21
-49.40
-53.47
-57.62
-61.93
-66.23
-70.12
-73.07
-74.42
-73.69
-70.76
-65.95
-59.99
-53.67
-47.58
-41.90
-36.48
-31.05
-25.51
-19.94
-14.65
-9.85
-5.59
-1.75
1.91
5.52
9.06
12.41
15.33
17.66
19.37
20.58
21.48
22.33
23.31
24.44
25.67
26.86
27.94
28.92
29.88
30.84
31.70
32.24
32.18
31.36
29.82
27.81
25.67
23.67
21.86
20.11
18.20
15.99
13.51
10.93
8.48
6.28
4.37
2.66
1.10
-0.34
-1.61
-2.63
-3.42
-4.12
-4.99
-6.35
-8.45
-11.28
-14.60
-17.97
-20.79
-22.67
-23.56
-23.83
-24.09
-24.98
-26.76
-29.31
-32.14
-34.63
-36.32
-37.08
-37.11
-36.87
-37.01
-38.24
-41.21
-46.35
-53.56
-62.14
-70.83
-78.16
-82.97
-84.84
-84.16
-81.88
-79.02
-76.23
-73.65
-70.97
-67.70
-63.51
-58.48
-53.08
-48.08
-44.30
-42.24
-41.90
-42.75
-44.00
-45.17
-46.46
-48.77
-53.38
-61.35
-73.00
-87.78
-104.59
-122.09
-139.21
-155.31
-170.08
-183.37
-194.92
-204.11
-210.10
-211.94
-208.66
-199.29
-182.84
-158.15
-124.29
-81.03
-29.23
28.76
89.44
149.06
204.58
254.23
297.52
334.54
365.12
388.60
404.11
411.28
410.69
403.70
391.82
375.94
356.04
331.52
302.01
268.07
231.41
194.51
159.66
128.25
100.42
75.32
51.75
28.89
6.61
-14.55
-33.76
-50.33
-63.96
-74.76
-83.02
-89.09
-93.25
-95.87
-97.42
-98.39
-99.05
-99.20
-98.03
-94.42
-87.42
-76.74
-63.00
-47.62
-32.37
-18.74
-7.56
1.17
8.05
13.90
19.48
25.21
31.16
37.12
42.69
47.39
50.89
52.93
53.52
52.85
51.24
48.99
46.38
43.54
40.50
37.36
34.26
31.33
28.73
26.44
24.27
21.96
19.19
15.84
11.98
7.96
4.18
1.00
-1.38
-3.08
-4.39
-5.74
-7.53
-9.93
-12.85
-16.00
-18.93
-21.27
-22.83
-23.58
-23.66
-23.24
-22.52
-21.65
-20.83
-20.20
-19.83
-19.71
-19.62
-19.32
-18.63
-17.45
-15.91
-14.25
-12.79
-11.88
-11.70
-12.22
-13.21
-14.28
-15.06
-15.39
-15.41
-15.51
-16.09
-17.39
-19.33
-21.69
-24.25
-26.91
-29.76
-32.93
-36.49
-40.28
-44.00
-47.20
-49.41
-50.22
-49.36
-46.90
-43.19
-38.80
-34.26
-29.97
-25.97
-22.08
-18.01
-13.56
-8.67
-3.42
1.99
7.25
11.99
15.85
18.53
19.94
20.28
19.94
19.43
19.18
19.36
19.83
20.21
20.04
18.99
17.01
14.37
11.60
9.26
7.72
7.05
7.14
7.74
8.65
9.73
10.75
11.43
11.48
10.81
9.60
8.37
7.71
8.01
9.32
11.27
13.40
15.28
16.74
17.78
18.53
19.07
19.37
19.38
19.06
18.49
17.90
17.60
17.83
18.58
19.47
19.90
19.35
17.70
15.39
13.29
12.22
12.62
14.32
16.73
19.15
21.11
22.39
23.04
23.31
23.54
24.08
25.31
27.45
30.46
33.99
37.49
40.35
42.18
42.80
42.36
41.38
40.64
41.07
43.46
48.11
54.59
61.78
68.08
71.95
72.28
68.54
60.88
49.92
36.61
21.89
6.45
-9.47
-26.21
-44.39
-64.60
-86.95
-110.93
-135.67
-160.27
-184.07
-206.81
-228.44
-248.77
-267.40
-283.64
-296.61
-305.38
-308.98
-306.41
-296.79
-279.63
-255.08
-224.06
-188.20
-149.36
-109.30
-69.28
-30.14
7.52
42.95
75.20
103.07
125.61
142.54
154.47
162.75
168.95
174.23
178.98
182.93
185.51
186.41
185.84
184.33
182.38
180.00
176.67
171.49
163.77
153.47
141.27
128.42
116.15
105.14
95.38
86.20
76.84
66.94
56.81
47.23
39.08
32.85
28.37
24.96
21.75
18.09
13.76
8.92
3.94
-0.82
-5.21
-9.25
-13.05
-16.63
-19.92
-22.69
-24.74
-25.94
-26.38
-26.44
-26.63
-27.49
-29.41
-32.51
-36.63
-41.46
-46.67
-52.07
-57.68
-63.61
-69.88
-76.25
-82.22
-87.14
-90.54
-92.28
-92.56
-91.71
-89.99
-87.42
-83.89
-79.35
-74.00
-68.29
-62.80
-58.09
-54.47
-52.15
-51.23
-51.86
-54.20
-58.24
-63.71
-69.93
-75.89
-80.48
-82.81
-82.37
-79.20
-73.80
-67.07
-60.08
-53.94
-49.58
-47.59
-48.15
-51.04
-55.81
-61.90
-68.83
-76.10
-83.33
-90.06
-95.89
-100.57
-104.05
-106.58
-108.56
-110.55
-113.29
-117.51
-123.79
-132.34
-142.80
-154.29
-165.72
-176.20
-185.40
-193.62
-201.64
-210.29
-220.28
-231.93
-245.09
-259.00
-272.21
-282.55
-287.55
-284.97
-273.57
-253.32
-225.44
-191.74
-154.20
-114.52
-74.15
-34.42
3.29
37.74
68.21
94.82
118.62
141.32
164.60
189.49
215.76
241.87
265.43
284.12
296.80
304.18
308.70
313.75
322.47
336.55
355.33
375.80
393.17
402.03
397.87
378.36
344.13
298.84
248.30
199.02
156.67
124.89
104.93
96.11
96.51
103.70
115.19
128.50
141.30
151.53
157.81
159.65
157.74
153.75
149.76
147.59
148.06
150.72
154.00
155.81
154.34
148.71
139.18
126.89
113.35
99.76
86.68
74.05
61.44
48.51
35.23
21.83
8.66
-4.11
-16.48
-28.53
-40.20
-51.20
-61.21
-70.11
-78.15
-85.84
-93.55
-101.23
-108.17
-113.22
-115.11
-112.95
-106.31
-95.27
-80.35
-62.40
-42.54
-22.04
-1.89
17.47
36.27
55.38
75.68
97.54
120.40
142.76
162.56
177.73
186.72
188.97
184.96
176.02
164.00
150.75
137.79
125.98
115.58
106.21
96.84
85.71
70.65
49.68
22.07
-11.01
-46.44
-80.08
-108.31
-129.38
-143.79
-153.64
-161.19
-167.74
-173.25
-176.92
-178.07
-176.83
-174.11
-170.94
-167.81
-164.42
-159.87
-153.29
-144.30
-133.32
-121.46
-110.07
-100.25
-92.40
-86.23
-80.88
-75.39
-69.14
-62.10
-54.79
-47.98
-42.22
-37.57
-33.57
-29.52
-24.95
-19.90
-14.90
-10.72
-8.01
-6.97
-7.39
-8.85
-10.98
-13.74
-17.23
-21.39
-25.69
-29.05
-30.20
-28.19
-22.89
-15.09
-6.22
2.24
9.19
14.21
17.44
19.24
20.07
20.28
20.17
20.03
20.05
20.31
20.72
21.04
20.96
20.21
18.59
16.16
13.19
10.18
7.77
6.51
6.63
7.92
9.78
11.53
12.71
13.21
13.27
13.20
13.15
13.05
12.73
12.15
11.49
11.20
11.66
12.93
14.76
16.55
17.66
17.64
16.41
14.21
11.58
9.11
7.22
6.10
5.60
5.35
4.90
3.84
2.00
-0.51
-3.43
-6.39
-9.08
-11.30
-12.98
-14.16
-14.98
-15.68
-16.61
-18.13
-20.51
-23.80
-27.76
-31.96
-35.86
-39.06
-41.45
-43.24
-44.91
-47.00
-49.86
-53.48
-57.36
-60.59
-62.14
-61.19
-57.44
-51.23
-43.50
-35.45
-28.23
-22.52
-18.41
-15.50
-13.02
-10.20
-6.47
-1.64
4.10
10.25
16.20
21.42
25.64
28.84
31.23
32.97
34.13
34.73
34.84
34.62
34.35
34.21
34.24
34.17
33.67
32.50
30.78
28.85
27.17
26.00
25.31
24.78
24.05
22.95
21.53
20.06
18.86
18.14
17.86
17.73
17.41
16.61
15.27
13.56
11.84
10.42
9.43
8.84
8.43
8.00
7.49
6.95
6.47
6.03
5.44
4.43
2.82
0.66
-1.71
-3.82
-5.32
-6.13
-6.47
-6.82
-7.62
-9.12
-11.35
-14.12
-17.17
-20.29
-23.32
-26.21
-28.96
-31.69
-34.63
-38.11
-42.41
-47.57
-53.26
-58.71
-62.79
-64.47
-63.08
-58.56
-51.49
-42.90
-33.95
-25.60
-18.46
-12.61
-7.74
-3.30
1.29
6.34
11.80
17.33
22.37
26.44
29.27
30.81
31.14
30.46
29.00
27.17
25.55
24.79
25.37
27.41
30.50
33.86
36.64
38.11
38.01
36.59
34.38
32.01
29.93
28.30
27.01
25.84
24.67
23.56
22.64
21.94
21.28
20.33
18.83
16.82
14.64
12.81
11.65
11.15
10.97
10.68
10.08
9.17
8.16
7.25
6.39
5.37
3.89
1.80
-0.81
-3.63
-6.22
-8.23
-9.53
-10.38
-11.27
-12.77
-15.21
-18.53
-22.24
-25.69
-28.30
-29.91
-30.71
-31.22
-31.94
-33.26
-35.36
-38.31
-42.08
-46.53
-51.30
-55.71
-58.82
-59.55
-57.17
-51.53
-43.29
-33.82
-24.73
-17.37
-12.33
-9.29
-7.26
-4.98
-1.53
3.40
9.41
15.69
21.36
25.75
28.63
30.06
30.31
29.68
28.54
27.26
26.18
25.62
25.69
26.26
26.99
27.44
27.27
26.41
25.01
23.34
21.71
20.39
19.54
19.27
19.61
20.41
21.39
22.26
22.71
22.61
21.95
20.74
19.02
16.80
14.12
11.23
8.56
6.55
5.45
5.12
5.07
4.75
3.79
2.23
0.42
-1.18
-2.30
-2.97
-3.41
-3.94
-4.77
-5.99
-7.64
-9.65
-11.92
-14.36
-16.75
-18.93
-20.78
-22.25
-23.34
-24.14
-24.79
-25.62
-27.13
-29.84
-33.99
-39.40
-45.27
-50.40
-53.60
-54.06
-51.57
-46.57
-39.93
-32.68
-25.80
-19.98
-15.54
-12.34
-9.89
-7.52
-4.68
-1.09
3.14
7.61
11.91
15.68
18.74
21.06
22.73
23.82
24.47
24.83
25.05
25.27
25.59
25.99
26.46
26.82
26.89
26.57
25.83
24.79
23.68
22.66
21.74
20.81
19.73
18.47
17.22
16.27
15.91
16.12
16.69
17.16
17.20
16.77
16.13
15.71
15.85
16.51
17.33
17.68
17.00
15.13
12.35
9.27
6.55
4.61
3.39
2.54
1.54
0.06
-1.87
-3.97
-5.85
-7.30
-8.47
-9.74
-11.56
-14.05
-17.05
-20.10
-22.74
-24.75
-26.22
-27.48
-28.93
-30.81
-33.16
-36.00
-39.32
-43.16
-47.46
-51.87
-55.71
-58.11
-58.35
-56.20
-51.99
-46.51
-40.59
-34.83
-29.35
-23.98
-18.50
-12.82
-7.10
-1.63
3.34
7.67
11.26
14.11
16.19
17.51
18.20
18.48
18.67
19.03
19.78
20.92
22.31
23.64
24.51
24.61
23.81
22.27
20.43
18.83
17.83
17.53
17.69
17.88
17.70
16.84
15.19
12.90
10.28
7.73
5.66
4.29
3.52
3.02
2.35
1.21
-0.37
-2.16
-3.78
-4.94
-5.51
-5.47
-4.85
-3.75
-2.36
-1.07
-0.35
-0.65
-2.06
-4.39
-7.17
-9.92
-12.37
-14.61
-16.97
-19.85
-23.44
-27.50
-31.38
-34.20
-35.02
-33.34
-29.24
-23.51
-17.36
-12.16
-8.97
-8.28
-9.93
-13.16
-16.88
-19.92
-21.35
-20.78
-18.35
-14.68
-10.49
-6.37
-2.60
0.78
3.80
6.54
9.05
11.45
13.99
16.87
20.13
23.55
26.64
28.91
30.20
30.71
30.94
31.50
32.72
34.59
36.78
38.72
39.82
39.67
38.19
35.60
32.46
29.40
26.98
25.47
24.86
24.81
24.93
24.88
24.38
23.33
21.69
19.53
17.05
14.59
12.50
11.10
10.50
10.51
10.72
10.56
9.54
7.49
4.63
1.49
-1.22
-3.00
-3.78
-3.92
-3.99
-4.46
-5.50
-6.97
-8.56
-10.06
-11.49
-13.05
-14.90
-17.04
-19.26
-21.23
-22.69
-23.56
-23.99
-24.32
-24.99
-26.34
-28.55
-31.59
-35.21
-39.01
-42.53
-45.18
-46.35
-45.49
-42.29
-36.91
-30.07
-22.86
-16.39
-11.41
-8.08
-6.03
-4.60
-3.18
-1.37
0.99
3.87
7.03
10.14
12.84
14.88
16.22
17.05
17.69
18.33
19.04
19.73
20.31
20.86
21.52
22.42
23.53
24.59
25.24
25.23
24.56
23.47
22.34
21.47
20.92
20.55
19.97
18.82
16.96
14.56
12.04
9.96
8.66
8.20
8.37
8.83
9.29
9.64
9.89
10.08
10.18
10.10
9.78
9.24
8.66
8.23
8.08
8.22
8.48
8.69
8.59
8.00
6.89
5.33
3.57
1.89
0.50
-0.62
-1.72
-3.20
-5.42
-8.50
-12.31
-16.59
-21.14
-26.01
-31.42
-37.55
-44.33
-51.33
-57.81
-63.10
-66.71
-68.39
-68.10
-65.87
-61.82
-56.19
-49.60
-42.86
-36.86
-32.13
-28.61
-25.66
-22.44
-18.32
-13.24
-7.71
-2.45
1.99
5.50
8.41
11.21
14.15
17.19
20.00
22.20
23.55
24.10
24.00
23.52
22.86
22.21
21.72
21.57
21.86
22.63
23.82
25.22
26.52
27.33
27.23
25.98
23.63
20.55
17.42
14.92
13.55
13.36
14.06
15.14
16.11
16.59
16.39
15.54
14.19
12.62
11.21
10.23
9.80
9.81
9.97
9.97
9.60
8.76
7.42
5.66
3.55
1.21
-1.18
-3.48
-5.64
-7.73
-9.93
-12.41
-15.17
-18.06
-20.84
-23.31
-25.43
-27.46
-29.78
-32.83
-36.81
-41.46
-46.07
-49.57
-50.86
-49.28
-44.90
-38.46
-31.15
-24.08
-17.88
-12.68
-8.20
-4.06
-0.05
3.85
7.53
10.93
14.07
17.06
19.93
22.51
24.47
25.51
25.50
24.73
23.80
23.45
24.20
26.04
28.45
30.57
31.69
31.52
30.28
28.57
26.93
25.69
24.80
24.02
23.16
22.17
21.14
20.14
19.13
17.96
16.50
14.86
13.36
12.42
12.34
13.06
14.22
15.23
15.58
14.99
13.50
11.39
9.10
7.16
5.94
5.66
6.21
7.18
7.99
8.13
7.30
5.48
2.85
-0.35
-3.91
-7.66
-11.41
-14.91
-17.93
-20.39
-22.40
-24.21
-26.12
-28.32
-30.91
-33.95
-37.44
-41.33
-45.55
-49.76
-53.50
-56.23
-57.54
-57.28
-55.59
-52.70
-48.83
-44.15
-38.77
-32.92
-27.00
-21.47
-16.66
-12.61
-9.05
-5.61
-2.05
1.60
5.02
7.89
10.08
11.73
13.15
14.60
16.19
17.88
19.68
21.58
23.70
26.14
28.84
31.61
34.09
35.96
37.00
37.15
36.55
35.40
34.00
32.47
30.84
29.00
26.79
24.07
20.94
17.66
14.62
12.08
10.18
8.78
7.66
6.56
5.33
4.02
2.74
1.65
0.85
0.34
0.04
-0.13
-0.23
-0.30
-0.33
-0.36
-0.52
-0.98
-1.91
-3.47
-5.64
-8.25
-11.06
-13.77
-16.18
-18.21
-19.97
-21.77
-23.93
-26.67
-30.04
-33.89
-37.94
-41.93
-45.78
-49.41
-52.74
-55.49
-57.09
-56.83
-54.15
-48.97
-41.83
-33.77
-25.92
-19.07
-13.43
-8.61
-4.07
0.58
5.30
9.58
12.82
14.65
15.19
14.93
14.51
14.40
14.74
15.40
16.19
17.03
18.07
19.49
21.40
23.65
25.85
27.58
28.63
29.14
29.47
30.06
31.08
32.34
33.36
33.63
32.82
30.98
28.43
25.57
22.76
20.22
18.05
16.39
15.33
14.97
15.22
15.73
15.93
15.35
13.73
11.25
8.46
5.94
4.07
2.81
1.83
0.71
-0.80
-2.70
-4.81
-6.91
-8.90
-10.79
-12.59
-14.28
-15.81
-17.10
-18.16
-19.10
-20.10
-21.37
-23.11
-25.47
-28.50
-32.21
-36.46
-40.99
-45.36
-49.00
-51.27
-51.63
-49.74
-45.65
-39.83
-33.03
-26.04
-19.47
-13.63
-8.57
-4.20
-0.35
3.18
6.63
10.29
14.26
18.45
22.48
25.89
28.27
29.59
30.16
30.48
31.02
31.91
33.02
34.03
34.60
34.64
34.19
33.39
32.38
31.18
29.74
28.01
26.01
23.87
21.76
19.78
17.90
15.99
13.91
11.65
9.41
7.51
6.32
6.00
6.46
7.42
8.45
9.23
9.61
9.62
9.31
8.72
7.78
6.40
4.64
2.66
0.79
-0.63
-1.43
-1.68
-1.73
-2.01
-2.84
-4.26
-6.04
-7.82
-9.29
-10.43
-11.47
-12.76
-14.56
-16.85
-19.38
-21.82
-23.97
-25.91
-28.05
-30.85
-34.60
-39.26
-44.33
-48.96
-52.23
-53.36
-52.01
-48.33
-42.86
-36.43
-29.88
-23.78
-18.34
-13.43
-8.70
-3.78
1.51
7.03
12.42
17.22
21.09
23.95
25.90
27.24
28.20
28.93
29.50
29.97
30.39
30.81
31.21
31.43
31.34
30.87
30.06
29.15
28.37
27.79
27.30
26.65
25.66
24.37
22.93
21.50
20.13
18.65
16.80
14.46
11.73
8.92
6.45
4.63
3.45
2.77
2.21
1.41
0.15
-1.59
-3.69
-5.90
-7.97
-9.79
-11.28
-12.56
-13.75
-14.99
-16.42
-18.15
-20.13
-22.23
-24.20
-25.79
-26.85
-27.45
-27.76
-27.97
-28.15
-28.20
-27.99
-27.59
-27.30
-27.64
-29.15
-32.04
-36.00
-40.28
-43.80
-45.54
-44.84
-41.50
-35.90
-28.85
-21.30
-14.17
-8.10
-3.32
0.43
3.63
6.89
10.59
14.73
19.00
22.86
25.79
27.46
27.80
26.92
25.15
22.99
20.97
19.59
19.11
19.44
20.19
20.72
20.52
19.39
17.51
15.28
13.12
11.27
9.82
8.81
8.31
8.46
9.41
11.13
13.34
15.67
17.59
18.73
18.97
18.45
17.52
16.61
15.99
15.73
15.66
15.54
15.10
14.25
12.98
11.34
9.38
7.12
4.55
1.73
-1.17
-3.97
-6.50
-8.75
-10.90
-13.16
-15.63
-18.27
-20.77
-22.82
-24.23
-25.02
-25.43
-25.80
-26.43
-27.64
-29.69
-32.79
-37.08
-42.44
-48.32
-53.78
-57.72
-59.15
-57.56
-53.09
-46.42
-38.58
-30.65
-23.47
-17.54
-12.95
-9.33
-6.03
-2.29
2.49
8.48
15.36
22.45
28.89
34.03
37.68
40.11
41.87
43.44
45.05
46.59
47.80
48.55
48.86
49.01
49.20
49.48
49.63
49.25
47.91
45.47
42.03
37.94
33.59
29.28
25.12
21.00
16.65
11.81
6.39
0.62
-4.99
-9.84
-13.53
-16.09
-18.06
-20.20
-23.15
-27.08
-31.70
-36.42
-40.86
-45.07
-49.57
-55.10
-62.09
-70.53
-79.85
-89.26
-98.06
-105.87
-112.75
-119.02
-125.09
-131.21
-137.52
-143.89
-150.04
-155.48
-159.33
-160.26
-156.65
-147.00
-130.68
-108.50
-82.69
-56.25
-31.84
-10.66
7.86
25.52
44.17
64.64
86.18
106.96
124.94
138.82
148.43
154.50
158.09
160.13
161.20
161.59
161.52
161.17
160.64
159.75
158.05
154.80
149.40
141.66
131.96
121.30
110.86
101.64
94.13
88.18
83.13
78.16
72.59
66.02
58.58
50.74
43.17
36.60
31.54
28.09
25.98
24.55
23.09
21.03
18.13
14.46
10.30
6.04
1.98
-1.61
-4.61
-7.07
-9.19
-11.27
-13.63
-16.39
-19.56
-22.95
-26.25
-29.14
-31.40
-32.93
-33.77
-34.14
-34.32
-34.68
-35.46
-36.68
-38.22
-39.82
-41.25
-42.44
-43.47
-44.48
-45.64
-47.07
-48.83
-50.91
-53.17
-55.25
-56.59
-56.47
-54.25
-49.61
-42.72
-34.16
-24.87
-15.81
-7.71
-0.95
4.45
8.77
12.41
15.73
18.99
22.28
25.49
28.45
30.91
32.74
33.91
34.59
34.95
35.14
35.12
34.73
33.83
32.43
30.82
29.38
28.46
28.11
28.15
28.25
28.27
28.30
28.60
29.35
30.39
31.24
31.26
30.04
27.69
24.78
22.06
20.19
19.38
19.40
19.74
19.80
19.12
17.33
14.28
10.00
4.81
-0.70
-5.79
-9.73
-12.24
-13.48
-14.11
-15.05
-17.10
-20.78
-26.14
-32.80
-40.07
-47.16
-53.29
-57.99
-61.19
-63.17
-64.56
-65.97
-67.79
-70.00
-72.37
-74.61
-76.56
-78.40
-80.39
-82.63
-84.89
-86.56
-86.91
-85.37
-81.75
-76.33
-69.65
-62.30
-54.74
-47.23
-39.94
-32.96
-26.45
-20.51
-15.23
-10.65
-6.70
-3.28
-0.27
2.47
5.03
7.33
9.26
10.66
11.51
11.99
12.39
13.07
14.24
15.95
18.07
20.41
22.81
25.15
27.33
29.20
30.61
31.52
31.97
32.16
32.33
32.61
32.96
33.15
32.84
31.81
30.05
27.82
25.51
23.55
22.20
21.52
21.38
21.56
21.83
22.02
22.01
21.72
21.13
20.25
19.12
17.84
16.44
14.89
13.15
11.17
8.93
6.38
3.47
0.10
-3.70
-7.80
-11.85
-15.46
-18.39
-20.69
-22.73
-25.13
-28.44
-32.84
-38.06
-43.34
-47.65
-50.00
-49.69
-46.58
-41.12
-34.24
-27.00
-20.27
-14.48
-9.58
-5.26
-1.14
2.99
7.14
11.22
15.16
18.91
22.38
25.34
27.44
28.37
28.08
26.89
25.42
24.43
24.33
25.14
26.52
27.93
28.96
29.42
29.31
28.69
27.66
26.26
24.68
23.26
22.38
22.24
22.77
23.57
24.04
23.70
22.35
20.13
17.53
15.08
13.26
12.33
12.29
12.87
13.69
14.26
14.24
13.51
12.16
10.43
8.55
6.67
4.82
3.03
1.30
-0.28
-1.68
-2.94
-4.25
-5.81
-7.77
-10.11
-12.69
-15.30
-17.81
-20.20
-22.49
-24.80
-27.20
-29.85
-32.95
-36.73
-41.31
-46.52
-51.82
-56.30
-58.98
-59.10
-56.38
-51.15
-44.11
-36.18
-28.28
-21.15
-15.22
-10.64
-7.14
-4.15
-1.03
2.78
7.48
12.82
18.21
22.91
26.32
28.21
28.71
28.23
27.29
26.34
25.67
25.42
25.64
26.27
27.18
28.17
28.98
29.39
29.22
28.47
27.35
26.17
25.21
24.61
24.30
24.03
23.53
22.65
21.42
20.03
18.69
17.57
16.66
15.85
14.96
13.89
12.63
11.27
9.88
8.48
6.98
5.30
3.43
1.53
-0.10
-1.14
-1.43
-1.02
-0.26
0.48
0.86
0.68
-0.10
-1.47
-3.49
-6.28
-9.81
-13.89
-18.02
-21.60
-24.06
-25.17
-25.16
-24.73
-24.79
-26.18
-29.34
-34.14
-39.86
-45.42
-49.65
-51.65
-50.97
-47.67
-42.32
-35.76
-28.90
-22.51
-17.01
-12.45
-8.59
-5.10
-1.64
1.97
5.84
9.96
14.17
18.13
21.30
23.13
23.33
22.07
20.02
18.16
17.29
17.78
19.34
21.26
22.75
23.23
22.47
20.63
18.06
15.14
12.24
9.61
7.36
5.52
4.05
2.88
1.93
1.09
0.13
-1.14
-2.86
-5.00
-7.37
-9.66
-11.65
-13.32
-14.84
-16.43
-18.15
-19.89
-21.41
-22.57
-23.41
-24.20
-25.26
-26.80
-28.86
-31.24
-33.73
-36.12
-38.30
-40.32
-42.27
-44.23
-46.19
-48.04
-49.55
-50.56
-50.99
-50.92
-50.47
-49.79
-48.92
-47.79
-46.20
-43.82
-40.24
-35.04
-27.83
-18.42
-6.94
6.15
20.10
34.02
47.06
58.51
67.89
75.01
79.91
82.89
84.33
84.74
84.51
83.89
82.93
81.52
79.55
76.98
73.89
70.46
66.80
62.91
58.63
53.85
48.56
43.07
37.81
33.20
29.46
26.45
23.76
20.94
17.71
14.06
10.26
6.81
4.08
2.34
1.52
1.33
1.40
1.47
1.45
1.40
1.35
1.21
0.75
-0.27
-1.90
-3.86
-5.67
-6.95
-7.55
-7.70
-7.91
-8.61
-10.04
-12.08
-14.41
-16.67
-18.64
-20.28
-21.68
-23.04
-24.55
-26.34
-28.48
-30.90
-33.45
-35.98
-38.41
-40.85
-43.61
-46.95
-50.94
-55.18
-58.93
-61.26
-61.48
-59.26
-54.80
-48.63
-41.34
-33.48
-25.52
-17.81
-10.65
-4.29
1.25
5.98
10.06
13.62
16.76
19.48
21.73
23.52
24.81
25.65
26.11
26.35
26.62
27.13
28.01
29.16
30.36
31.26
31.57
31.20
30.22
28.89
27.51
26.35
25.56
25.08
24.67
24.09
23.12
21.76
20.21
18.77
17.61
16.80
16.22
15.67
15.03
14.26
13.35
12.25
10.83
8.94
6.56
3.93
1.44
-0.40
-1.23
-1.06
-0.25
0.58
0.79
0.03
-1.66
-3.96
-6.41
-8.69
-10.76
-12.72
-14.78
-16.97
-19.25
-21.51
-23.69
-25.92
-28.46
-31.63
-35.57
-40.20
-45.24
-50.24
-54.79
-58.49
-60.95
-61.82
-60.75
-57.54
-52.35
-45.77
-38.69
-32.03
-26.44
-22.04
-18.53
-15.41
-12.20
-8.72
-5.04
-1.36
2.01
4.76
6.70
7.84
8.42
8.96
10.01
11.88
14.53
17.51
20.18
22.11
23.18
23.52
23.45
23.16
22.76
22.36
22.19
22.52
23.59
25.27
27.07
28.29
28.37
27.26
25.39
23.50
22.21
21.74
21.82
21.93
21.52
20.32
18.35
15.89
13.35
11.10
9.41
8.31
7.64
7.13
6.53
5.66
4.51
3.05
1.18
-1.24
-4.31
-7.93
-11.66
-14.97
-17.45
-19.05
-20.15
-21.31
-23.00
-25.39
-28.36
-31.71
-35.30
-39.17
-43.37
-47.74
-51.88
-54.99
-56.22
-54.91
-50.89
-44.63
-37.12
-29.48
-22.60
-16.87
-12.14
-7.93
-3.81
0.47
4.88
9.25
13.46
17.41
21.08
24.37
27.07
28.96
29.90
29.99
29.51
28.86
28.40
28.32
28.62
29.07
29.31
29.06
28.21
26.85
25.33
24.07
23.36
23.31
23.78
24.42
24.91
25.02
24.63
23.73
22.36
20.56
18.41
16.11
13.93
12.23
11.29
11.23
11.86
12.74
13.29
13.03
11.76
9.66
7.25
5.15
3.83
3.40
3.67
4.15
4.43
4.23
3.48
2.29
0.72
-1.16
-3.35
-5.70
-8.07
-10.22
-12.04
-13.64
-15.30
-17.36
-20.04
-23.35
-27.09
-31.07
-35.14
-39.24
-43.37
-47.33
-50.76
-53.16
-54.10
-53.29
-50.75
-46.61
-41.10
-34.50
-27.15
-19.47
-12.01
-5.25
0.52
5.36
9.60
13.61
17.56
21.32
24.53
26.81
28.05
28.50
28.59
28.67
28.88
29.13
29.20
28.93
28.31
27.49
26.70
26.08
25.68
25.49
25.42
25.39
25.31
25.10
24.67
23.93
22.79
21.23
19.30
17.10
14.78
12.55
10.62
9.15
8.14
7.49
6.95
6.20
5.00
3.24
1.05
-1.35
-3.71
-5.83
-7.66
-9.14
-10.27
-11.07
-11.60
-12.04
-12.66
-13.73
-15.38
-17.59
-20.19
-22.93
-25.59
-28.08
-30.30
-32.20
-33.73
-34.84
-35.62
-36.25
-36.99
-38.14
-39.87
-42.17
-44.81
-47.32
-49.05
-49.43
-47.96
-44.48
-39.16
-32.48
-25.17
-18.01
-11.59
-6.16
-1.64
2.40
6.43
10.77
15.49
20.29
24.72
28.29
30.66
31.72
31.61
30.73
29.48
28.35
27.66
27.56
28.04
28.92
29.92
30.70
30.95
30.40
28.97
26.80
24.28
21.91
20.13
19.09
18.67
18.49
18.13
17.35
16.04
14.28
12.27
10.24
8.47
7.22
6.65
6.69
7.00
7.01
6.14
4.17
1.29
-1.95
-4.85
-6.93
-8.13
-8.73
-9.20
-9.91
-11.01
-12.43
-13.90
-15.12
-15.88
-16.16
-16.10
-16.02
-16.28
-17.22
-18.94
-21.28
-23.96
-26.78
-29.83
-33.49
-38.26
-44.45
-51.92
-59.95
-67.43
-73.09
-75.87
-75.21
-71.07
-63.95
-54.79
-44.71
-34.87
-26.21
-19.14
-13.40
-8.13
-2.20
5.38
14.86
25.59
36.10
44.65
50.01
51.92
51.23
49.46
48.07
47.96
49.27
51.61
54.37
57.14
59.66
61.72
63.07
63.32
62.14
59.49
55.74
51.53
47.67
44.71
42.89
41.97
41.33
40.16
37.85
34.21
29.62
24.91
20.92
18.15
16.49
15.32
13.92
11.85
9.17
6.24
3.50
1.12
-1.00
-3.10
-5.26
-7.33
-8.95
-9.84
-9.99
-9.66
-9.33
-9.52
-10.56
-12.52
-15.22
-18.26
-21.15
-23.54
-25.22
-26.26
-26.92
-27.52
-28.35
-29.57
-31.24
-33.45
-36.36
-40.19
-44.96
-50.33
-55.45
-59.15
-60.33
-58.38
-53.50
-46.59
-38.86
-31.33
-24.51
-18.34
-12.52
-6.78
-1.19
4.04
8.65
12.58
15.93
18.82
21.30
23.25
24.54
25.15
25.22
25.01
24.81
24.80
25.06
25.51
25.94
26.11
25.78
24.80
23.24
21.40
19.69
18.45
17.79
17.60
17.67
17.71
17.52
16.96
15.90
14.29
12.14
9.65
7.20
5.17
3.83
3.24
3.20
3.45
3.63
3.50
2.95
1.99
0.79
-0.44
-1.47
-2.20
-2.70
-3.16
-3.74
-4.48
-5.37
-6.33
-7.40
-8.69
-10.40
-12.65
-15.28
-18.01
-20.43
-22.25
-23.47
-24.35
-25.40
-27.18
-30.07
-34.21
-39.38
-44.99
-50.21
-54.08
-55.74
-54.65
-50.80
-44.70
-37.31
-29.67
-22.67
-16.74
-11.93
-7.99
-4.58
-1.39
1.87
5.46
9.51
13.91
18.24
21.80
23.91
24.26
23.07
21.09
19.29
18.46
18.93
20.55
22.76
24.98
26.72
27.71
27.84
27.05
25.38
22.93
20.01
17.10
14.80
13.56
13.47
14.32
15.58
16.63
16.98
16.49
15.22
13.45
11.57
9.90
8.72
8.13
8.05
8.19
8.19
7.73
6.65
5.03
3.06
0.96
-1.12
-3.19
-5.24
-7.21
-8.98
-10.39
-11.41
-12.17
-12.97
-14.13
-15.89
-18.19
-20.75
-23.19
-25.25
-26.90
-28.39
-30.11
-32.48
-35.80
-40.06
-44.95
-49.77
-53.58
-55.41
-54.54
-50.81
-44.57
-36.68
-28.13
-19.88
-12.67
-6.90
-2.62
0.50
3.11
5.95
9.61
14.22
19.36
24.22
28.11
30.68
32.06
32.77
33.26
33.71
33.95
33.72
32.93
31.82
30.84
30.48
30.94
32.03
33.30
34.21
34.42
33.85
32.70
31.22
29.70
28.31
27.17
26.31
25.65
24.98
24.02
22.55
20.58
18.32
16.14
14.33
13.02
12.15
11.59
11.18
10.83
10.44
9.88
9.00
7.72
6.12
4.39
2.82
1.60
0.77
0.34
0.18
0.20
0.15
-0.30
-1.49
-3.59
-6.52
-9.89
-13.19
-16.06
-18.36
-20.23
-21.89
-23.51
-25.10
-26.63
-28.16
-29.90
-32.26
-35.57
-39.91
-45.06
-50.49
-55.49
-59.38
-61.56
-61.63
-59.45
-55.12
-49.08
-42.05
-34.77
-27.86
-21.64
-16.06
-10.92
-5.99
-1.19
3.42
7.68
11.45
14.56
16.89
18.38
19.10
19.28
19.34
19.71
20.61
21.94
23.34
24.36
24.80
24.73
24.46
24.34
24.57
25.07
25.62
26.03
26.19
26.14
25.88
25.33
24.33
22.70
20.40
17.66
14.95
12.75
11.41
11.03
11.43
12.30
13.30
14.17
14.74
14.91
14.62
13.88
12.78
11.45
10.09
8.83
7.73
6.79
5.87
4.82
3.45
1.60
-0.80
-3.62
-6.60
-9.29
-11.22
-12.08
-11.94
-11.30
-10.98
-11.76
-14.06
-17.65
-21.81
-25.67
-28.62
-30.59
-32.02
-33.52
-35.55
-38.24
-41.47
-44.93
-48.30
-51.21
-53.21
-53.70
-52.17
-48.31
-42.29
-34.77
-26.67
-18.94
-12.22
-6.75
-2.35
1.43
5.02
8.65
12.31
15.82
18.96
21.72
24.16
26.39
28.34
29.71
30.16
29.53
28.08
26.46
25.46
25.62
27.01
29.22
31.57
33.52
34.75
35.21
34.97
34.09
32.58
30.48
27.97
25.38
23.14
21.56
20.73
20.49
20.39
19.97
18.90
17.11
14.81
12.47
10.57
9.46
9.28
9.80
10.62
11.31
11.49
11.00
9.93
8.43
6.74
5.02
3.35
1.77
0.36
-0.85
-1.86
-2.76
-3.82
-5.35
-7.49
-10.17
-13.08
-15.69
-17.61
-18.67
-19.08
-19.23
-19.61
-20.59
-22.34
-24.84
-27.89
-31.27
-34.74
-38.18
-41.56
-44.96
-48.31
-51.34
-53.42
-53.83
-51.99
-47.84
-41.87
-34.94
-28.01
-21.69
-16.14
-11.23
-6.73
-2.55
1.25
4.66
7.73
10.63
13.50
16.32
18.87
20.85
22.03
22.34
22.04
21.59
21.52
22.23
23.77
25.81
27.69
28.80
28.74
27.49
25.43
23.05
20.90
19.30
18.33
17.84
17.55
17.13
16.37
15.19
13.70
12.10
10.54
9.06
7.61
6.14
4.72
3.55
2.87
2.74
3.02
3.40
3.50
3.15
2.37
1.33
0.28
-0.65
-1.45
-2.26
-3.29
-4.68
-6.44
-8.40
-10.32
-11.96
-13.21
-14.14
-14.97
-15.96
-17.32
-19.05
-21.06
-23.26
-25.66
-28.42
-31.62
-35.19
-38.80
-42.09
-44.84
-47.18
-49.49
-52.06
-54.85
-57.31
-58.63
-58.08
-55.34
-50.54
-44.01
-36.07
-26.80
-16.27
-4.79
7.05
18.46
28.69
37.32
44.22
49.37
52.79
54.42
54.31
52.73
50.20
47.32
44.55
42.11
39.90
37.86
35.95
34.26
32.94
32.01
31.32
30.59
29.56
27.99
25.87
23.30
20.48
17.67
15.09
12.86
11.10
9.87
9.24
9.26
9.89
10.90
11.98
12.65
12.56
11.66
10.19
8.63
7.44
6.84
6.68
6.63
6.34
5.68
4.77
3.80
2.92
2.12
1.25
0.10
-1.27
-2.70
-3.94
-4.86
-5.51
-6.12
-6.94
-8.20
-9.98
-12.18
-14.63
-17.07
-19.30
-21.18
-22.70
-23.95
-25.08
-26.23
-27.49
-28.97
-30.88
-33.52
-37.19
-41.95
-47.40
-52.61
-56.39
-57.66
-55.85
-51.11
-44.16
-36.18
-28.31
-21.38
-15.77
-11.35
-7.68
-4.22
-0.53
3.59
8.01
12.39
16.37
19.65
22.10
23.71
24.44
24.24
23.17
21.50
19.71
18.43
18.09
18.78
20.18
21.76
23.04
23.82
24.15
24.20
24.17
24.12
24.04
23.91
23.78
23.73
23.77
23.76
23.48
22.69
21.24
19.13
16.61
14.08
11.96
10.66
10.35
10.88
11.84
12.67
12.89
12.30
10.96
9.10
7.01
4.92
3.05
1.56
0.59
0.11
-0.09
-0.41
-1.32
-3.06
-5.49
-8.22
-10.70
-12.57
-13.81
-14.66
-15.54
-16.68
-18.17
-20.01
-22.24
-24.88
-28.00
-31.51
-35.15
-38.65
-41.83
-44.68
-47.26
-49.55
-51.28
-52.01
-51.28
-48.82
-44.71
-39.25
-32.83
-25.79
-18.42
-11.00
-3.90
2.48
7.94
12.43
16.19
19.46
22.38
24.89
26.77
27.80
27.93
27.36
26.48
25.72
25.43
25.63
26.08
26.38
26.15
25.23
23.73
21.96
20.30
19.02
18.20
17.78
17.65
17.70
17.88
18.15
18.40
18.47
18.20
17.52
16.47
15.28
14.29
13.73
13.72
14.01
14.20
13.91
12.94
11.39
9.61
7.99
6.82
6.16
5.82
5.50
4.93
3.98
2.63
0.93
-1.06
-3.32
-5.86
-8.65
-11.52
-14.19
-16.29
-17.61
-18.14
-18.25
-18.56
-19.64
-21.77
-24.89
-28.54
-32.19
-35.47
-38.28
-40.86
-43.66
-46.97
-50.81
-54.77
-58.11
-60.07
-60.16
-58.22
-54.46
-49.29
-43.06
-36.06
-28.57
-20.95
-13.65
-7.11
-1.55
3.12
7.24
11.24
15.39
19.60
23.67
27.27
30.15
32.24
33.52
34.00
33.78
33.02
32.00
31.12
30.67
30.79
31.31
31.90
32.16
31.81
30.79
29.24
27.48
25.85
24.65
24.02
23.89
24.01
24.00
23.54
22.52
21.09
19.54
18.12
16.94
15.95
15.05
14.21
13.46
12.90
12.48
12.05
11.34
10.19
8.52
6.51
4.43
2.55
1.01
-0.21
-1.24
-2.27
-3.39
-4.58
-5.72
-6.66
-7.41
-8.18
-9.33
-11.17
-13.77
-16.94
-20.27
-23.45
-26.32
-28.90
-31.26
-33.38
-35.22
-36.78
-38.28
-40.16
-42.97
-46.97
-51.86
-56.79
-60.46
-61.68
-59.77
-54.85
-47.85
-40.16
-33.12
-27.52
-23.40
-20.06
-16.54
-12.13
-6.68
-0.59
5.40
10.69
15.02
18.44
21.18
23.32
24.82
25.61
25.82
25.88
26.41
27.88
30.30
33.24
35.92
37.59
37.89
36.89
35.02
32.86
30.90
29.37
28.33
27.67
27.27
27.05
26.95
26.86
26.59
25.87
24.45
22.29
19.61
16.87
14.57
13.01
12.20
11.83
11.49
10.82
9.67
8.10
6.26
4.42
2.79
1.54
0.73
0.25
-0.14
-0.81
-2.10
-4.19
-7.07
-10.50
-14.08
-17.40
-20.08
-21.94
-22.98
-23.39
-23.55
-23.87
-24.77
-26.59
-29.50
-33.52
-38.44
-43.81
-48.98
-53.14
-55.48
-55.35
-52.54
-47.33
-40.40
-32.71
-25.17
-18.38
-12.57
-7.58
-3.03
1.38
5.75
9.98
13.82
17.07
19.61
21.45
22.70
23.51
24.00
24.30
24.57
24.95
25.56
26.53
27.85
29.40
30.96
32.23
32.96
33.06
32.51
31.38
29.83
28.01
26.21
24.77
23.94
23.80
24.14
24.47
24.33
23.49
22.10
20.59
19.41
18.74
18.47
18.28
17.87
17.18
16.36
15.60
15.01
14.43
13.57
12.15
10.09
7.46
4.59
1.84
-0.51
-2.31
-3.64
-4.74
-5.88
-7.35
-9.32
-11.83
-14.82
-18.09
-21.39
-24.45
-27.14
-29.43
-31.46
-33.50
-35.91
-39.10
-43.35
-48.68
-54.66
-60.47
-64.91
-66.94
-65.95
-61.99
-55.73
-48.17
-40.28
-32.79
-26.11
-20.38
-15.53
-11.35
-7.44
-3.35
1.31
6.62
12.32
17.77
22.37
25.71
27.78
28.95
29.68
30.37
31.25
32.37
33.60
34.77
35.67
36.09
35.92
35.20
34.12
33.06
32.40
32.36
32.93
33.83
34.68
35.11
34.86
33.85
32.18
30.09
27.91
26.04
24.76
24.11
23.92
23.75
23.12
21.67
19.31
16.19
12.72
9.28
6.15
3.42
0.99
-1.30
-3.58
-5.87
-8.11
-10.14
-11.89
-13.34
-14.61
-15.93
-17.54
-19.62
-22.23
-25.21
-28.27
-31.03
-33.19
-34.62
-35.58
-36.55
-38.05
-40.45
-43.84
-47.99
-52.50
-56.85
-60.45
-62.69
-62.95
-60.74
-55.95
-48.96
-40.67
-32.18
-24.48
-18.06
-12.92
-8.60
-4.56
-0.35
4.18
8.90
13.44
17.37
20.29
21.99
22.55
22.29
21.68
21.15
21.02
21.41
22.28
23.60
25.26
27.12
28.88
30.07
30.24
29.18
27.08
24.47
22.14
20.64
20.13
20.32
20.65
20.52
19.60
17.88
15.53
12.94
10.49
8.46
7.14
6.70
7.12
8.26
9.81
11.28
12.22
12.19
11.03
8.90
6.29
3.89
2.39
2.21
3.24
4.90
6.32
6.68
5.54
2.93
-0.78
-5.05
-9.40
-13.48
-16.99
-19.78
-21.77
-23.11
-24.18
-25.56
-27.64
-30.60
-34.23
-38.10
-41.82
-45.14
-47.92
-49.95
-50.85
-50.14
-47.51
-42.95
-36.91
-30.11
-23.29
-16.87
-10.94
-5.34
0.13
5.51
10.65
15.34
19.32
22.40
24.58
25.95
26.68
27.03
27.18
27.22
27.18
27.08
26.98
27.02
27.34
27.96
28.81
29.68
30.32
30.55
30.30
29.63
28.73
27.87
27.35
27.34
27.78
28.41
28.75
28.38
27.08
24.96
22.41
19.93
17.93
16.59
15.86
15.49
15.15
14.55
13.58
12.26
10.75
9.28
7.98
6.89
5.95
5.03
4.03
2.92
1.70
0.39
-1.01
-2.56
-4.37
-6.42
-8.67
-10.93
-12.98
-14.68
-16.10
-17.47
-19.15
-21.46
-24.44
-27.84
-31.19
-34.01
-36.04
-37.45
-38.68
-40.36
-42.95
-46.53
-50.67
-54.52
-57.10
-57.61
-55.71
-51.52
-45.51
-38.34
-30.60
-22.87
-15.62
-9.21
-3.82
0.66
4.54
8.27
12.09
16.03
19.76
22.88
25.23
26.90
28.19
29.41
30.61
31.64
32.26
32.31
31.85
31.18
30.64
30.48
30.74
31.31
31.91
32.26
32.08
31.14
29.45
27.12
24.45
21.79
19.47
17.63
16.29
15.33
14.58
13.87
13.07
12.16
11.13
10.05
8.97
7.95
7.04
6.26
5.63
5.07
4.46
3.60
2.25
0.26
-2.30
-5.17
-7.91
-10.09
-11.54
-12.39
-13.05
-14.08
-15.79
-18.22
-21.12
-24.13
-26.93
-29.31
-31.21
-32.68
-33.76
-34.59
-35.39
-36.46
-38.03
-40.25
-42.96
-45.65
-47.56
-47.86
-45.94
-41.68
-35.54
-28.39
-21.23
-14.76
-9.19
-4.22
0.56
5.36
9.98
13.93
16.76
18.35
19.00
19.27
19.67
20.38
21.21
21.84
22.06
21.90
21.67
21.69
22.05
22.58
22.91
22.74
22.03
21.01
20.12
19.72
19.87
20.29
20.50
20.14
19.09
17.58
16.03
14.81
14.16
14.02
14.23
14.58
14.90
15.06
14.92
14.22
12.79
10.58
7.88
5.22
3.19
2.14
2.02
2.41
2.66
2.24
0.88
-1.34
-4.12
-7.06
-9.79
-12.10
-13.96
-15.46
-16.89
-18.56
-20.78
-23.69
-27.18
-30.98
-34.67
-37.91
-40.56
-42.77
-44.84
-47.04
-49.41
-51.65
-53.24
-53.56
-52.19
-48.99
-44.09
-37.83
-30.62
-22.90
-15.14
-7.79
-1.17
4.52
9.23
13.02
16.03
18.42
20.31
21.84
23.08
24.12
24.94
25.50
25.78
25.82
25.68
25.55
25.57
25.87
26.49
27.34
28.29
29.10
29.52
29.38
28.64
27.46
26.06
24.74
23.69
23.04
22.77
22.75
22.82
22.76
22.46
21.83
20.88
19.66
18.18
16.43
14.43
12.19
9.85
7.63
5.75
4.39
3.61
3.32
3.32
3.37
3.26
2.86
2.15
1.20
0.00
-1.51
-3.52
-6.20
-9.56
-13.35
-17.17
-20.53
-23.22
-25.29
-27.05
-28.90
-31.10
-33.72
-36.66
-39.87
-43.28
-46.90
-50.66
-54.22
-56.99
-58.19
-57.25
-53.99
-48.77
-42.33
-35.46
-28.77
-22.48
-16.56
-10.85
-5.30
-0.03
4.73
8.80
12.19
15.11
17.86
20.65
23.53
26.33
28.79
30.69
31.95
32.62
32.85
32.75
32.30
31.45
30.16
28.53
26.83
25.35
24.37
23.95
23.94
24.01
23.81
23.01
21.54
19.54
17.35
15.40
13.99
13.24
13.00
12.87
12.40
11.23
9.17
6.37
3.19
0.10
-2.40
-4.06
-4.90
-5.21
-5.42
-5.89
-6.81
-8.14
-9.71
-11.24
-12.44
-13.11
-13.13
-12.55
-11.66
-10.91
-10.75
-11.54
-13.34
-15.96
-19.02
-22.08
-24.87
-27.34
-29.70
-32.38
-35.80
-40.09
-44.95
-49.59
-52.90
-53.93
-52.15
-47.72
-41.32
-33.91
-26.29
-19.04
-12.49
-6.79
-2.01
1.91
5.26
8.31
11.30
14.24
16.89
18.93
20.20
20.81
21.10
21.45
22.07
22.95
23.91
24.83
25.74
26.81
28.18
29.75
31.24
32.27
32.53
32.00
30.95
29.82
29.02
28.59
28.27
27.56
26.08
23.72
20.82
17.92
15.58
14.14
13.55
13.55
13.78
14.01
14.08
13.86
13.18
11.79
9.63
6.87
3.97
1.46
-0.27
-1.22
-1.71
-2.22
-3.17
-4.73
-6.94
-9.72
-12.97
-16.49
-20.04
-23.21
-25.71
-27.49
-28.76
-29.99
-31.69
-34.22
-37.83
-42.58
-48.28
-54.31
-59.69
-63.10
-63.35
-59.94
-53.19
-44.32
-34.83
-26.03
-18.62
-12.78
-8.20
-4.47
-1.19
2.04
5.55
9.58
14.07
18.66
22.76
25.87
27.76
28.56
28.73
28.76
29.04
29.77
30.88
32.13
33.20
33.74
33.50
32.52
31.02
29.45
28.24
27.62
27.53
27.74
27.97
28.02
27.84
27.36
26.42
24.78
22.34
19.28
16.10
13.43
11.72
11.08
11.21
11.61
11.92
11.94
11.70
11.23
10.50
9.41
7.91
6.09
4.16
2.36
0.88
-0.22
-0.98
-1.56
-2.21
-3.21
-4.79
-7.09
-10.02
-13.31
-16.61
-19.62
-22.16
-24.33
-26.33
-28.39
-30.68
-33.22
-36.08
-39.32
-43.01
-47.08
-51.32
-55.08
-57.53
-57.82
-55.35
-50.23
-43.17
-35.31
-27.77
-21.35
-16.23
-12.12
-8.51
-4.86
-0.93
3.27
7.50
11.47
14.94
17.78
19.99
21.56
22.55
22.97
22.92
22.66
22.58
23.11
24.47
26.47
28.50
29.85
30.02
28.97
27.18
25.35
24.02
23.41
23.37
23.55
23.68
23.63
23.41
23.04
22.39
21.31
19.68
17.59
15.34
13.40
12.16
11.73
11.95
12.34
12.37
11.62
9.90
7.32
4.23
1.06
-1.71
-3.78
-5.01
-5.53
-5.71
-6.04
-7.02
-8.88
-11.56
-14.75
-17.88
-20.55
-22.53
-23.88
-24.84
-25.72
-26.82
-28.41
-30.76
-34.07
-38.49
-43.86
-49.58
-54.64
-57.90
-58.41
-55.74
-50.21
-42.69
-34.35
-26.20
-18.87
-12.48
-6.83
-1.59
3.44
8.21
12.52
16.12
18.88
20.91
22.39
23.50
24.36
24.97
25.30
25.38
25.41
25.60
26.19
27.25
28.60
29.93
30.80
30.87
30.06
28.58
26.76
24.95
23.36
21.99
20.78
19.71
18.89
18.46
18.47
18.78
19.07
18.98
18.32
17.17
15.80
14.44
13.19
11.98
10.64
9.11
7.44
5.68
3.85
1.84
-0.48
-3.06
-5.66
-7.86
-9.31
-9.92
-10.00
-10.06
-10.62
-11.99
-14.19
-17.07
-20.43
-24.06
-27.68
-31.03
-33.76
-35.72
-37.04
-38.14
-39.65
-42.10
-45.69
-50.14
-54.73
-58.50
-60.45
-59.81
-56.20
-49.78
-41.21
-31.50
-21.78
-13.04
-5.90
-0.60
2.99
5.32
7.01
8.71
10.99
14.12
17.99
22.12
25.80
28.34
29.45
29.30
28.50
27.85
27.95
29.04
30.94
33.20
35.32
36.92
37.78
37.81
37.06
35.63
33.73
31.62
29.65
28.03
26.88
26.11
25.46
24.66
23.49
21.87
19.97
18.14
16.71
15.95
15.81
15.94
15.92
15.38
14.26
12.75
11.15
9.64
8.13
6.43
4.32
1.83
-0.83
-3.41
-5.72
-7.80
-9.84
-11.99
-14.36
-16.92
-19.55
-22.16
-24.71
-27.14
-29.38
-31.30
-32.79
-33.83
-34.52
-35.12
-36.07
-37.77
-40.42
-43.85
-47.42
-50.18
-51.10
-49.48
-45.15
-38.53
-30.59
-22.44
-15.12
-9.23
-4.82
-1.52
1.34
4.42
8.09
12.34
16.80
20.93
24.33
26.83
28.46
29.35
29.62
29.37
28.67
27.75
26.85
26.19
25.87
25.80
25.79
25.71
25.53
25.34
25.25
25.23
25.05
24.48
23.39
21.88
20.23
18.76
17.58
16.61
15.62
14.36
12.75
10.81
8.65
6.44
4.34
2.56
1.40
1.06
1.53
2.56
3.57
4.00
3.51
2.08
-0.03
-2.45
-4.93
-7.32
-9.55
-11.53
-13.17
-14.44
-15.50
-16.70
-18.38
-20.74
-23.72
-27.07
-30.59
-34.28
-38.28
-42.65
-47.19
-51.23
-53.92
-54.46
-52.41
-47.98
-41.80
-34.73
-27.56
-20.80
-14.67
-9.12
-4.04
0.69
5.05
8.96
12.29
15.00
17.13
18.90
20.55
22.23
23.99
25.72
27.23
28.36
28.97
29.02
28.58
27.90
27.27
26.91
26.92
27.14
27.24
26.90
25.98
24.57
22.94
21.33
19.85
18.45
16.99
15.41
13.76
12.20
10.88
9.89
9.18
8.64
8.00
6.99
5.45
3.40
1.14
-0.84
-2.08
-2.45
-2.15
-1.67
-1.53
-1.97
-2.91
-4.06
-5.23
-6.43
-7.92
-9.99
-12.79
-16.17
-19.68
-22.80
-25.08
-26.44
-27.22
-28.12
-29.91
-33.17
-38.05
-44.13
-50.57
-56.31
-60.28
-61.73
-60.30
-56.12
-49.68
-41.80
-33.41
-25.41
-18.55
-13.13
-9.01
-5.61
-2.06
2.39
8.06
14.64
21.24
26.79
30.53
32.20
32.19
31.26
30.19
29.52
29.47
30.03
31.08
32.44
33.92
35.25
36.08
36.02
34.80
32.39
29.20
25.90
23.35
22.14
22.38
23.57
24.87
25.48
25.02
23.58
21.58
19.52
17.71
16.20
14.96
13.93
13.15
12.63
12.24
11.71
10.78
9.28
7.25
4.99
2.80
0.96
-0.43
-1.44
-2.30
-3.25
-4.55
-6.42
-8.89
-11.88
-15.11
-18.23
-20.87
-22.91
-24.41
-25.64
-26.96
-28.67
-31.04
-34.27
-38.46
-43.63
-49.51
-55.50
-60.67
-63.98
-64.51
-61.89
-56.39
-48.80
-40.24
-31.76
-24.11
-17.63
-12.30
-7.84
-3.95
-0.36
3.15
6.71
10.35
13.96
17.33
20.15
22.20
23.41
23.96
24.20
24.49
25.12
26.15
27.54
29.08
30.57
31.69
32.21
31.95
30.92
29.37
27.72
26.34
25.42
24.92
24.60
24.26
23.81
23.28
22.68
21.94
20.89
19.41
17.55
15.61
13.96
12.95
12.63
12.77
13.00
12.85
11.97
10.24
7.72
4.68
1.47
-1.51
-3.97
-5.79
-7.02
-7.83
-8.44
-9.06
-9.91
-11.29
-13.47
-16.67
-20.84
-25.60
-30.40
-34.71
-38.35
-41.56
-44.82
-48.69
-53.23
-57.93
-61.74
-63.44
-62.17
-57.73
-50.60
-41.71
-32.12
-22.72
-14.14
-6.78
-0.86
3.67
7.13
10.08
13.19
16.92
21.26
25.82
29.92
32.98
34.68
35.01
34.18
32.53
30.49
28.54
27.20
26.79
27.37
28.68
30.25
31.62
32.47
32.66
32.21
31.21
29.82
28.26
26.87
25.93
25.56
25.60
25.65
25.27
24.14
22.19
19.62
16.82
14.22
12.18
10.90
10.36
10.34
10.51
10.51
10.08
9.15
7.82
6.24
4.53
2.74
0.84
-1.16
-3.20
-5.16
-6.94
-8.49
-9.88
-11.29
-13.02
-15.32
-18.32
-21.92
-25.81
-29.54
-32.72
-35.25
-37.26
-39.18
-41.48
-44.48
-48.25
-52.47
-56.57
-59.87
-61.71
-61.61
-59.36
-55.02
-48.90
-41.51
-33.55
-25.66
-18.44
-12.28
-7.20
-2.86
1.26
5.71
10.71
16.02
21.05
25.14
27.89
29.36
30.00
30.33
30.67
30.97
30.91
30.31
29.37
28.58
28.58
29.68
31.62
33.76
35.27
35.66
34.90
33.34
31.35
29.19
26.88
24.41
21.94
19.81
18.37
17.76
17.69
17.67
17.19
16.06
14.48
12.85
11.49
10.49
9.65
8.68
7.39
5.73
3.73
1.47
-0.98
-3.50
-5.92
-8.03
-9.66
-10.76
-11.38
-11.69
-11.91
-12.22
-12.85
-14.10
-16.17
-19.06
-22.50
-25.92
-28.70
-30.40
-31.05
-31.09
-31.29
-32.35
-34.80
-38.70
-43.71
-49.14
-54.09
-57.60
-58.85
-57.40
-53.23
-46.75
-38.75
-30.11
-21.74
-14.29
-8.04
-2.89
1.54
5.79
10.25
15.01
19.83
24.17
27.47
29.44
30.12
29.91
29.40
29.10
29.22
29.76
30.45
31.01
31.21
31.00
30.44
29.68
28.78
27.68
26.38
24.89
23.39
22.12
21.24
20.80
20.67
20.59
20.36
19.89
19.21
18.40
17.57
16.73
15.80
14.65
13.15
11.29
9.21
7.25
5.82
5.24
5.53
6.27
6.79
6.47
5.00
2.59
-0.17
-2.66
-4.50
-5.80
-6.94
-8.24
-9.78
-11.38
-12.83
-14.16
-15.65
-17.74
-20.64
-24.16
-27.70
-30.61
-32.48
-33.37
-33.80
-34.52
-36.30
-39.64
-44.65
-50.85
-57.25
-62.53
-65.36
-64.85
-60.98
-54.40
-46.30
-37.84
-29.77
-22.46
-15.99
-10.37
-5.58
-1.50
2.19
6.06
10.62
16.00
21.84
27.33
31.59
34.07
34.65
33.78
32.16
30.49
29.33
28.94
29.29
30.10
30.90
31.26
30.97
30.11
29.01
28.08
27.54
27.34
27.21
26.88
26.21
25.29
24.22
23.03
21.62
19.82
17.61
15.22
13.08
11.58
10.89
10.84
10.98
10.91
10.27
8.99
7.22
5.20
3.17
1.31
-0.31
-1.61
-2.52
-2.95
-2.81
-2.14
-1.15
-0.22
0.21
-0.17
-1.48
-3.50
-5.91
-8.36
-10.64
-12.69
-14.65
-16.60
-18.68
-20.98
-23.52
-26.28
-29.12
-31.93
-34.67
-37.41
-40.41
-43.89
-47.91
-52.18
-56.09
-58.89
-59.89
-58.72
-55.35
-50.11
-43.50
-36.14
-28.56
-21.21
-14.31
-7.86
-1.79
4.04
9.63
14.89
19.62
23.60
26.70
28.85
30.14
30.75
30.89
30.79
30.65
30.61
30.64
30.65
30.46
29.97
29.23
28.47
27.96
27.90
28.28
28.82
29.04
28.52
27.10
24.95
22.52
20.33
18.74
17.71
17.03
16.39
15.50
14.30
12.83
11.16
9.30
7.20
4.79
2.20
-0.29
-2.32
-3.57
-3.95
-3.63
-3.00
-2.52
-2.55
-3.26
-4.62
-6.50
-8.71
-11.04
-13.32
-15.34
-16.98
-18.25
-19.35
-20.58
-22.24
-24.38
-26.80
-29.19
-31.25
-32.91
-34.38
-36.01
-38.10
-40.77
-43.81
-46.78
-49.05
-49.93
-48.83
-45.44
-39.81
-32.40
-23.98
-15.39
-7.34
-0.22
5.90
11.06
15.26
18.49
20.70
21.97
22.62
23.10
23.86
25.10
26.70
28.24
29.30
29.62
29.27
28.62
28.05
27.82
27.90
28.00
27.82
27.21
26.28
25.32
24.64
24.32
24.13
23.73
22.75
21.13
19.10
17.11
15.64
14.91
14.84
15.08
15.18
14.82
13.90
12.57
11.11
9.76
8.63
7.63
6.51
5.12
3.47
1.71
0.08
-1.38
-2.88
-4.81
-7.49
-10.89
-14.53
-17.62
-19.51
-19.87
-19.09
-17.92
-17.21
-17.51
-18.88
-21.00
-23.46
-26.05
-28.78
-31.79
-35.15
-38.68
-42.08
-45.05
-47.50
-49.58
-51.41
-52.90
-53.61
-52.83
-50.00
-44.92
-37.99
-30.04
-22.03
-14.71
-8.38
-2.95
1.93
6.63
11.27
15.72
19.64
22.73
24.90
26.34
27.44
28.54
29.77
31.02
32.03
32.54
32.52
32.07
31.49
31.09
31.12
31.65
32.62
33.77
34.76
35.13
34.54
32.90
30.41
27.51
24.71
22.38
20.66
19.49
18.67
17.97
17.20
16.20
14.88
13.22
11.28
9.18
7.17
5.51
4.41
3.93
4.01
4.45
4.97
5.22
4.91
3.92
2.34
0.48
-1.22
-2.46
-3.20
-3.68
-4.35
-5.57
-7.53
-10.19
-13.39
-17.02
-20.99
-25.25
-29.67
-33.96
-37.83
-41.07
-43.69
-45.97
-48.29
-51.05
-54.31
-57.72
-60.56
-61.90
-60.99
-57.43
-51.45
-43.76
-35.29
-26.89
-19.07
-12.01
-5.61
0.26
5.68
10.57
14.79
18.27
21.02
23.18
24.91
26.31
27.38
28.05
28.25
28.13
27.93
27.97
28.47
29.43
30.63
31.72
32.47
32.78
32.75
32.58
32.42
32.24
31.82
30.86
29.18
26.90
24.38
22.22
20.87
20.52
20.95
21.65
22.07
21.80
20.70
18.81
16.38
13.68
10.94
8.41
6.27
4.62
3.42
2.53
1.67
0.45
-1.52
-4.50
-8.42
-12.80
-16.88
-19.90
-21.46
-21.77
-21.47
-21.36
-22.02
-23.56
-25.75
-28.25
-30.79
-33.28
-35.80
-38.37
-40.97
-43.59
-46.26
-49.04
-51.90
-54.48
-56.14
-56.12
-53.79
-48.92
-41.89
-33.49
-24.69
-16.37
-9.11
-3.19
1.47
5.21
8.52
11.87
15.55
19.51
23.35
26.52
28.57
29.44
29.46
29.13
28.86
28.75
28.64
28.37
27.99
27.76
28.00
28.80
29.82
30.49
30.29
29.10
27.23
25.30
23.86
23.12
22.87
22.64
22.05
20.96
19.62
18.40
17.60
17.22
16.91
16.28
15.04
13.33
11.57
10.27
9.73
9.86
10.24
10.36
9.91
8.79
7.20
5.32
3.33
1.18
-1.19
-3.84
-6.72
-9.60
-12.18
-14.14
-15.27
-15.66
-15.66
-15.83
-16.67
-18.45
-21.04
-24.00
-26.82
-29.12
-30.87
-32.23
-33.57
-35.21
-37.40
-40.26
-43.72
-47.53
-51.08
-53.53
-54.00
-51.83
-46.91
-39.72
-31.24
-22.64
-14.91
-8.62
-3.82
-0.08
3.22
6.69
10.67
15.15
19.83
24.14
27.60
29.82
30.69
30.40
29.23
27.54
25.56
23.57
21.83
20.65
20.36
21.08
22.69
24.66
26.24
26.77
26.00
24.18
22.00
20.26
19.50
19.82
20.86
22.00
22.65
22.42
21.25
19.42
17.29
15.20
13.30
11.60
10.01
8.50
7.13
6.02
5.23
4.62
3.82
2.44
0.29
-2.47
-5.26
-7.38
-8.42
-8.36
-7.69
-7.07
-7.05
-7.89
-9.51
-11.63
-14.00
-16.41
-18.68
-20.66
-22.22
-23.38
-24.39
-25.67
-27.59
-30.34
-33.74
-37.21
-40.02
-41.50
-41.26
-39.25
-35.74
-31.10
-25.76
-20.12
-14.52
-9.36
-4.90
-1.21
1.86
4.71
7.77
11.16
14.68
17.80
20.04
21.19
21.45
21.24
20.96
20.80
20.72
20.59
20.40
20.29
20.47
21.13
22.27
23.69
25.14
26.30
26.90
26.76
25.85
24.25
22.25
20.19
18.38
16.99
16.02
15.40
15.06
14.91
14.89
14.79
14.28
13.01
10.82
7.89
4.73
2.08
0.48
0.08
0.64
1.59
2.37
2.58
2.08
0.92
-0.76
-2.72
-4.71
-6.51
-7.98
-9.15
-10.20
-11.38
-12.95
-15.08
-17.80
-21.09
-24.76
-28.48
-31.84
-34.43
-36.12
-37.21
-38.39
-40.40
-43.66
-47.88
-52.12
-55.11
-55.72
-53.35
-48.07
-40.55
-31.67
-22.43
-13.65
-6.02
0.05
4.54
7.86
10.73
13.90
17.85
22.46
27.13
31.07
33.61
34.55
34.08
32.66
30.80
28.91
27.34
26.33
26.06
26.49
27.37
28.25
28.68
28.44
27.49
25.98
24.09
21.93
19.60
17.24
15.14
13.55
12.61
12.28
12.30
12.44
12.54
12.56
12.55
12.51
12.27
11.67
10.63
9.21
7.71
6.42
5.55
5.14
5.11
5.23
5.27
5.07
4.50
3.59
2.46
1.31
0.30
-0.53
-1.23
-1.99
-3.00
-4.40
-6.19
-8.25
-10.43
-12.63
-14.79
-16.94
-19.05
-21.01
-22.76
-24.29
-25.70
-27.31
-29.45
-32.49
-36.59
-41.60
-47.02
-52.08
-55.85
-57.54
-56.71
-53.40
-48.19
-41.95
-35.56
-29.62
-24.29
-19.42
-14.63
-9.68
-4.48
0.85
6.10
11.03
15.43
19.06
21.62
22.84
22.58
21.05
18.88
16.92
15.95
16.37
17.99
20.21
22.34
23.87
24.61
24.72
24.42
23.91
23.29
22.61
21.93
21.38
21.02
20.79
20.52
19.93
18.78
16.97
14.59
12.05
9.89
8.64
8.65
9.85
11.75
13.58
14.61
14.45
13.22
11.47
9.78
8.55
7.77
7.07
6.07
4.54
2.54
0.39
-1.67
-3.53
-5.27
-7.09
-9.14
-11.37
-13.56
-15.47
-17.00
-18.22
-19.35
-20.64
-22.27
-24.24
-26.46
-28.76
-31.09
-33.48
-36.06
-38.92
-41.92
-44.55
-46.12
-45.93
-43.70
-39.63
-34.40
-28.80
-23.45
-18.57
-14.05
-9.65
-5.16
-0.60
3.95
8.40
12.62
16.52
19.93
22.69
24.68
25.90
26.47
26.56
26.42
26.29
26.37
26.82
27.58
28.38
28.88
28.76
27.89
26.48
24.94
23.71
22.97
22.64
22.42
22.08
21.57
21.04
20.69
20.62
20.68
20.61
20.17
19.31
18.32
17.54
17.22
17.33
17.50
17.17
15.88
13.39
9.85
5.80
1.93
-1.12
-2.90
-3.40
-2.95
-2.09
-1.46
-1.49
-2.32
-3.90
-5.96
-8.21
-10.34
-12.16
-13.51
-14.33
-14.71
-14.90
-15.29
-16.24
-17.94
-20.36
-23.20
-26.01
-28.37
-30.05
-31.13
-31.97
-33.09
-35.03
-38.13
-42.37
-47.35
-52.30
-56.24
-58.22
-57.57
-54.09
-48.19
-40.68
-32.72
-25.32
-19.25
-14.78
-11.68
-9.35
-7.05
-4.18
-0.40
4.29
9.61
15.13
20.37
24.84
28.08
29.80
29.94
28.87
27.19
25.68
24.92
25.10
26.03
27.24
28.28
28.84
28.83
28.34
27.47
26.34
25.11
23.97
23.12
22.65
22.46
22.25
21.70
20.69
19.26
17.64
16.09
14.75
13.62
12.58
11.51
10.38
9.18
8.02
6.93
5.96
4.99
3.88
2.47
0.70
-1.30
-3.21
-4.61
-5.27
-5.19
-4.73
-4.38
-4.56
-5.37
-6.71
-8.35
-10.24
-12.55
-15.54
-19.36
-23.78
-28.23
-32.00
-34.58
-35.91
-36.50
-37.19
-38.75
-41.51
-45.25
-49.17
-52.25
-53.65
-52.92
-50.08
-45.50
-39.64
-32.97
-25.86
-18.68
-11.90
-5.90
-0.94
3.04
6.36
9.54
12.90
16.48
19.99
22.96
25.03
26.08
26.23
25.72
24.80
23.78
22.93
22.55
22.84
23.74
24.99
26.15
26.79
26.73
25.94
24.53
22.63
20.43
18.11
15.95
14.27
13.31
13.08
13.33
13.65
13.65
13.06
11.79
10.01
7.98
6.06
4.55
3.67
3.36
3.36
3.20
2.47
1.08
-0.75
-2.52
-3.72
-4.05
-3.67
-2.98
-2.48
-2.54
-3.20
-4.32
-5.72
-7.25
-8.77
-10.16
-11.20
-11.66
-11.49
-10.85
-10.08
-9.56
-9.51
-9.96
-10.75
-11.73
-12.82
-14.09
-15.73
-17.94
-20.92
-24.69
-29.02
-33.40
-37.04
-39.10
-38.97
-36.49
-32.03
-26.37
-20.30
-14.49
-9.30
-4.77
-0.73
3.03
6.69
10.36
14.00
17.55
20.87
23.77
26.08
27.70
28.52
28.61
28.15
27.37
26.46
25.60
24.81
24.02
23.10
21.89
20.41
18.85
17.51
16.78
16.89
17.81
19.20
20.50
21.08
20.54
18.78
16.09
13.05
10.28
8.21
7.00
6.55
6.59
6.87
7.24
7.60
7.85
7.76
7.07
5.70
3.91
2.26
1.51
2.16
4.22
7.33
10.81
14.08
16.83
18.92
20.40
21.24
21.43
20.93
19.81
18.23
16.41
14.48
12.40
9.95
6.87
2.91
-1.98
-7.49
-13.03
-17.86
-21.36
-23.35
-24.20
-24.69
-25.76
-28.13
-31.94
-36.92
-42.32
-47.21
-50.59
-51.62
-49.81
-45.12
-38.16
-30.00
-21.97
-15.16
-10.09
-6.60
-4.03
-1.68
0.90
3.63
6.10
7.80
8.40
7.91
6.57
4.72
2.70
0.80
-0.68
-1.43
-1.24
-0.18
1.42
2.97
3.96
4.18
3.78
3.15
2.62
2.34
2.22
2.27
2.61
3.55
5.33
7.97
11.10
14.14
16.56
17.96
18.45
18.35
18.07
17.88
17.85
17.76
17.33
16.37
14.97
13.47
12.28
11.72
11.76
12.05
12.08
11.47
10.17
8.35
6.38
4.48
2.73
1.04
-0.73
-2.73
-4.95
-7.32
-9.80
-12.26
-14.69
-17.10
-19.43
-21.66
-23.79
-25.92
-28.32
-31.37
-35.36
-40.31
-45.77
-50.85
-54.44
-55.61
-53.86
-49.35
-42.85
-35.34
-27.79
-20.87
-14.90
-9.96
-5.96
-2.76
-0.09
2.40
5.11
8.38
12.25
16.43
20.33
23.30
24.92
25.19
24.48
23.42
22.64
22.49
23.12
24.40
25.98
27.56
28.84
29.66
29.96
29.74
28.99
27.78
26.21
24.55
23.16
22.41
22.42
23.02
23.69
23.78
22.78
20.52
17.34
13.90
11.02
9.37
9.20
10.33
12.12
13.77
14.52
13.91
12.02
9.31
6.45
4.03
2.34
1.30
0.66
0.12
-0.52
-1.30
-2.27
-3.43
-4.80
-6.43
-8.31
-10.33
-12.38
-14.35
-16.27
-18.24
-20.35
-22.65
-25.19
-27.97
-31.03
-34.40
-38.10
-42.03
-45.96
-49.60
-52.49
-54.15
-54.17
-52.24
-48.41
-43.08
-36.91
-30.63
-24.79
-19.60
-14.91
-10.43
-5.86
-1.09
3.85
8.83
13.61
17.95
21.58
24.27
25.91
26.59
26.54
26.14
25.73
25.57
25.77
26.33
27.15
28.15
29.20
30.14
30.81
31.09
30.91
30.30
29.45
28.60
27.98
27.72
27.68
27.54
26.97
25.79
24.16
22.53
21.45
21.27
22.01
23.29
24.59
25.46
25.69
25.18
23.87
21.55
18.01
13.25
7.75
2.35
-1.97
-4.61
-5.64
-5.75
-5.90
-6.80
-8.64
-11.09
-13.63
-15.90
-17.86
-19.69
-21.55
-23.48
-25.35
-26.98
-28.30
-29.34
-30.29
-31.45
-33.23
-35.95
-39.74
-44.41
-49.27
-53.36
-55.75
-55.81
-53.46
-49.05
-43.22
-36.65
-29.92
-23.39
-17.19
-11.28
-5.47
0.46
6.51
12.36
17.40
20.98
22.70
22.64
21.38
19.77
18.62
18.37
19.13
20.69
22.72
24.90
26.91
28.45
29.32
29.35
28.60
27.30
25.80
24.38
23.22
22.36
21.71
21.16
20.55
19.67
18.33
16.44
14.03
11.41
9.05
7.35
6.48
6.22
6.09
5.59
4.42
2.61
0.44
-1.68
-3.43
-4.68
-5.47
-5.93
-6.20
-6.34
-6.37
-6.29
-6.25
-6.36
-6.67
-7.07
-7.31
-7.11
-6.34
-5.14
-3.83
-2.85
-2.55
-3.02
-4.17
-5.87
-8.01
-10.66
-14.05
-18.39
-23.77
-30.08
-36.87
-43.35
-48.59
-51.68
-52.13
-49.94
-45.69
-40.20
-34.32
-28.60
-23.23
-18.16
-13.24
-8.40
-3.63
1.08
5.75
10.36
14.77
18.62
21.48
23.06
23.39
22.92
22.34
22.26
22.90
24.19
25.69
26.99
27.75
27.82
27.14
25.76
23.91
21.94
20.34
19.50
19.48
20.04
20.61
20.71
20.17
19.09
17.79
16.55
15.47
14.51
13.65
12.94
12.53
12.50
12.72
12.82
12.41
11.23
9.32
7.05
4.89
3.16
1.99
1.26
0.68
0.04
-0.85
-2.05
-3.53
-5.21
-6.96
-8.61
-9.96
-10.85
-11.32
-11.56
-11.95
-12.84
-14.50
-16.95
-20.02
-23.31
-26.42
-28.98
-30.85
-32.16
-33.23
-34.53
-36.50
-39.41
-43.22
-47.56
-51.70
-54.73
-55.83
-54.40
-50.35
-44.09
-36.43
-28.33
-20.66
-13.93
-8.22
-3.32
1.13
5.48
9.87
14.26
18.42
22.01
24.79
26.65
27.68
28.10
28.15
28.01
27.73
27.36
26.91
26.50
26.30
26.36
26.66
27.04
27.24
27.13
26.68
25.97
25.18
24.45
23.76
23.08
22.31
21.45
20.60
19.94
19.59
19.54
19.57
19.35
18.61
17.26
15.50
13.67
12.12
10.99
10.22
9.59
8.84
7.93
6.92
5.98
5.12
4.12
2.62
0.34
-2.68
-6.05
-9.10
-11.32
-12.58
-13.16
-13.67
-14.62
-16.31
-18.69
-21.51
-24.44
-27.20
-29.56
-31.35
-32.49
-33.05
-33.32
-33.73
-34.73
-36.67
-39.61
-43.24
-46.86
-49.45
-50.01
-47.81
-42.74
-35.45
-27.09
-18.87
-11.65
-5.73
-0.86
3.35
7.23
10.88
14.27
17.38
20.26
22.96
25.42
27.40
28.54
28.69
27.89
26.55
25.25
24.55
24.70
25.68
27.13
28.52
29.37
29.34
28.31
26.50
24.29
22.14
20.48
19.54
19.26
19.35
19.40
19.00
17.96
16.37
14.44
12.52
10.84
9.51
8.51
7.79
7.19
6.62
5.91
4.97
3.80
2.51
1.31
0.39
-0.23
-0.79
-1.69
-3.32
-5.81
-8.89
-11.95
-14.36
-15.65
-15.85
-15.38
-14.90
-14.99
-15.99
-17.89
-20.42
-23.28
-26.18
-28.97
-31.60
-34.05
-36.39
-38.78
-41.39
-44.38
-47.65
-50.80
-53.18
-54.05
-52.86
-49.46
-44.15
-37.57
-30.55
-23.80
-17.82
-12.80
-8.66
-5.09
-1.69
1.89
5.93
10.42
15.15
19.72
23.65
26.51
28.11
28.54
28.10
27.29
26.63
26.45
26.90
27.87
29.11
30.36
31.42
32.15
32.48
32.32
31.58
30.29
28.63
26.87
25.34
24.17
23.33
22.64
21.91
21.07
20.20
19.34
18.49
17.50
16.22
14.62
12.91
11.46
10.57
10.39
10.73
11.21
11.41
11.00
9.87
8.14
6.13
4.19
2.66
1.65
1.04
0.49
-0.45
-2.06
-4.34
-6.96
-9.49
-11.56
-13.06
-14.16
-15.14
-16.22
-17.50
-18.94
-20.47
-22.07
-23.79
-25.72
-27.95
-30.52
-33.43
-36.68
-40.28
-44.17
-48.11
-51.58
-53.86
-54.25
-52.25
-47.85
-41.47
-33.91
-26.01
-18.52
-11.89
-6.27
-1.54
2.58
6.47
10.34
14.27
18.02
21.14
23.24
24.18
24.19
23.80
23.56
23.80
24.49
25.36
26.05
26.42
26.48
26.41
26.35
26.32
26.21
25.90
25.34
24.58
23.79
23.11
22.59
22.20
21.77
21.07
19.92
18.25
16.15
13.89
11.77
9.98
8.60
7.48
6.42
5.28
4.05
2.81
1.69
0.80
0.12
-0.38
-0.77
-1.09
-1.37
-1.69
-2.25
-3.30
-5.08
-7.67
-10.85
-14.14
-16.95
-18.76
-19.39
-19.12
-18.46
-18.00
-18.13
-18.88
-20.08
-21.53
-23.24
-25.33
-27.95
-31.08
-34.38
-37.39
-39.61
-40.79
-40.89
-39.97
-38.04
-34.97
-30.64
-25.13
-18.81
-12.29
-6.16
-0.79
3.80
7.76
11.28
14.43
17.09
19.11
20.38
21.03
21.30
21.53
21.93
22.56
23.28
23.81
23.91
23.44
22.56
21.55
20.85
20.75
21.33
22.39
23.58
24.55
25.05
24.92
24.11
22.71
20.88
18.92
17.19
15.95
15.30
15.16
15.30
15.55
15.86
16.22
16.61
16.87
16.78
16.17
15.08
13.74
12.42
11.29
10.25
9.06
7.49
5.53
3.38
1.32
-0.39
-1.78
-2.99
-4.27
-5.80
-7.63
-9.67
-11.80
-13.89
-15.97
-18.15
-20.54
-23.17
-25.94
-28.61
-30.92
-32.76
-34.24
-35.65
-37.43
-39.88
-43.12
-46.90
-50.66
-53.69
-55.31
-55.08
-52.85
-48.86
-43.47
-37.17
-30.36
-23.34
-16.44
-9.94
-4.16
0.76
4.86
8.43
11.83
15.38
19.17
22.98
26.46
29.25
31.16
32.19
32.51
32.30
31.64
30.61
29.31
27.94
26.80
26.09
25.88
26.05
26.33
26.38
25.95
24.93
23.32
21.29
19.14
17.20
15.82
15.17
15.15
15.49
15.80
15.77
15.25
14.19
12.67
10.84
8.93
7.22
6.08
5.70
6.03
6.77
7.49
7.79
7.49
6.52
4.92
2.79
0.22
-2.57
-5.24
-7.42
-8.92
-9.84
-10.59
-11.64
-13.22
-15.26
-17.47
-19.52
-21.31
-22.98
-24.78
-26.82
-28.99
-31.00
-32.66
-34.05
-35.50
-37.54
-40.49
-44.23
-48.13
-51.32
-52.87
-52.17
-49.10
-43.95
-37.37
-30.08
-22.82
-16.17
-10.54
-6.07
-2.57
0.39
3.38
6.87
10.96
15.44
19.80
23.46
26.06
27.44
27.72
27.22
26.21
24.97
23.71
22.60
21.71
21.12
20.73
20.41
20.07
19.50
18.66
17.58
16.36
15.14
14.09
13.30
12.72
12.18
11.43
10.28
8.72
6.89
5.06
3.52
2.53
2.16
2.37
2.95
3.63
4.07
3.97
3.17
1.64
-0.48
-3.00
-5.69
-8.44
-11.23
-14.03
-16.75
-19.20
-21.10
-22.31
-22.92
-23.28
-24.04
-25.84
-29.06
-33.44
-38.27
-42.43
-44.93
-45.30
-43.66
-40.73
-37.45
-34.73
-33.13
-32.73
-33.09
-33.27
-32.14
-28.50
-21.64
-11.53
1.05
14.63
27.49
38.10
45.45
49.32
50.25
49.37
47.91
46.95
46.97
47.76
48.67
48.92
47.98
45.76
42.48
38.46
34.00
29.38
24.93
21.21
18.84
18.21
19.21
21.10
22.77
23.22
22.06
19.71
17.13
15.45
15.35
16.91
19.63
22.76
25.67
27.98
29.59
30.63
31.21
31.51
31.62
31.56
31.19
30.30
28.66
26.14
22.82
18.88
14.65
10.42
6.42
2.86
-0.13
-2.50
-4.33
-5.82
-7.31
-9.11
-11.38
-14.03
-16.79
-19.26
-21.14
-22.34
-23.05
-23.70
-24.71
-26.36
-28.62
-31.15
-33.53
-35.49
-37.06
-38.54
-40.33
-42.72
-45.77
-49.29
-52.97
-56.45
-59.33
-61.33
-62.05
-61.16
-58.41
-53.69
-47.27
-39.72
-31.86
-24.49
-18.20
-13.04
-8.66
-4.42
0.22
5.38
10.68
15.45
19.00
20.98
21.49
21.00
20.06
19.19
18.65
18.46
18.51
18.67
18.86
19.07
19.25
19.33
19.26
19.00
18.63
18.36
18.40
18.84
19.62
20.44
20.88
20.55
19.31
17.35
15.14
13.26
12.09
11.74
11.98
12.37
12.58
12.41
11.95
11.40
10.83
10.16
9.22
7.93
6.41
5.01
4.18
4.18
4.96
6.10
6.99
7.09
6.03
3.82
0.76
-2.67
-5.94
-8.63
-10.55
-11.79
-12.69
-13.74
-15.36
-17.71
-20.72
-24.10
-27.56
-30.97
-34.37
-37.90
-41.58
-45.19
-48.31
-50.39
-50.99
-49.84
-46.91
-42.44
-36.75
-30.29
-23.51
-16.87
-10.69
-5.18
-0.38
3.79
7.42
10.61
13.46
16.10
18.56
20.89
23.01
24.79
26.13
27.01
27.56
28.00
28.53
29.18
29.88
30.42
30.67
30.64
30.46
30.28
30.21
30.21
30.07
29.55
28.44
26.66
24.37
21.85
19.41
17.28
15.56
14.22
13.19
12.37
11.69
11.13
10.63
10.12
9.55
8.87
8.10
7.33
6.59
5.93
5.34
4.71
3.90
2.65
0.78
-1.78
-4.88
-8.20
-11.36
-14.08
-16.33
-18.31
-20.28
-22.43
-24.73
-27.05
-29.27
-31.53
-34.20
-37.80
-42.55
-48.15
-53.84
-58.50
-61.12
-61.10
-58.40
-53.48
-47.11
-40.10
-33.21
-27.05
-21.93
-17.79
-14.29
-10.84
-6.88
-2.14
3.33
9.21
14.98
20.09
24.09
26.67
27.77
27.64
26.84
26.13
26.12
27.03
28.69
30.61
32.23
33.25
33.55
33.22
32.38
31.16
29.70
28.22
26.95
26.03
25.38
24.70
23.53
21.64
19.06
16.21
13.73
12.13
11.62
12.05
12.95
13.72
13.92
13.35
12.09
10.44
8.73
7.20
5.94
4.89
3.92
2.92
1.88
0.86
-0.05
-0.87
-1.72
-2.78
-4.18
-5.97
-7.96
-9.96
-11.80
-13.44
-14.94
-16.45
-18.01
-19.60
-21.18
-22.78
-24.64
-27.18
-30.72
-35.28
-40.33
-44.83
-47.54
-47.57
-44.68
-39.45
-33.06
-26.71
-21.19
-16.61
-12.49
-8.21
-3.40
1.91
7.27
12.14
16.16
19.22
21.41
22.90
23.73
23.87
23.35
22.33
21.12
20.18
19.90
20.46
21.70
23.22
24.44
24.86
24.19
22.49
20.18
17.88
16.10
15.10
14.74
14.54
14.02
12.86
11.11
9.09
7.19
5.65
4.55
3.87
3.55
3.60
4.06
4.86
5.88
6.86
7.49
7.55
6.86
5.35
3.18
0.67
-1.66
-3.30
-3.97
-3.87
-3.56
-3.79
-5.18
-7.87
-11.66
-16.13
-20.87
-25.68
-30.44
-35.06
-39.33
-43.13
-46.49
-49.71
-53.14
-56.85
-60.39
-62.82
-63.02
-60.24
-54.52
-46.62
-37.69
-28.87
-20.84
-13.85
-7.81
-2.48
2.32
6.78
11.15
15.65
20.32
25.00
29.27
32.62
34.64
35.21
34.52
33.09
31.51
30.35
30.05
30.78
32.37
34.38
36.21
37.26
37.23
36.04
33.92
31.21
28.28
25.44
22.94
20.91
19.37
18.30
17.54
16.91
16.24
15.45
14.56
13.65
12.77
11.85
10.86
9.74
8.52
7.35
6.45
6.00
6.03
6.30
6.33
5.64
3.97
1.44
-1.47
-4.22
-6.44
-8.13
-9.53
-11.05
-12.92
-15.18
-17.63
-20.01
-22.23
-24.33
-26.48
-28.84
-31.49
-34.38
-37.44
-40.68
-44.09
-47.69
-51.33
-54.58
-56.74
-57.14
-55.31
-51.30
-45.61
-38.98
-32.11
-25.40
-18.98
-12.86
-7.07
-1.75
2.96
6.99
10.38
13.29
15.83
18.04
19.79
20.98
21.55
21.61
21.35
21.01
20.75
20.67
20.82
21.23
21.97
23.05
24.41
25.86
27.21
28.21
28.73
28.72
28.16
27.08
25.51
23.61
21.59
19.74
18.33
17.49
17.16
17.13
17.10
16.83
16.17
15.08
13.71
12.29
11.06
10.21
9.83
9.79
9.82
9.55
8.63
6.85
4.28
1.26
-1.73
-4.24
-6.05
-7.26
-8.28
-9.53
-11.33
-13.69
-16.40
-19.09
-21.46
-23.44
-25.14
-26.84
-28.85
-31.41
-34.52
-37.91
-41.09
-43.41
-44.33
-43.48
-40.84
-36.60
-31.11
-24.80
-18.13
-11.59
-5.63
-0.57
3.54
6.92
9.97
13.01
16.14
19.10
21.50
22.98
23.52
23.46
23.38
23.78
24.91
26.67
28.71
30.59
31.96
32.61
32.49
31.69
30.35
28.69
26.95
25.42
24.25
23.44
22.86
22.27
21.49
20.38
18.94
17.18
15.18
13.05
10.91
8.89
7.09
5.50
4.02
2.54
0.96
-0.70
-2.28
-3.56
-4.37
-4.73
-4.82
-4.98
-5.49
-6.57
-8.19
-10.14
-12.12
-13.85
-15.28
-16.47
-17.71
-19.19
-20.94
-22.85
-24.70
-26.32
-27.75
-29.19
-30.93
-33.20
-36.02
-39.30
-42.88
-46.52
-49.94
-52.74
-54.33
-54.10
-51.63
-46.93
-40.57
-33.45
-26.45
-20.18
-14.73
-9.79
-4.89
0.31
5.87
11.54
16.96
21.77
25.62
28.27
29.64
29.90
29.39
28.71
28.34
28.52
29.14
29.79
30.05
29.73
28.87
27.72
26.54
25.45
24.45
23.51
22.68
22.08
21.85
21.94
22.14
22.19
21.83
21.01
19.94
18.95
18.27
17.94
17.72
17.25
16.27
14.67
12.58
10.21
7.84
5.68
3.93
2.70
2.04
1.88
1.96
1.89
1.41
0.35
-1.17
-2.92
-4.64
-6.21
-7.60
-8.87
-10.02
-11.02
-11.79
-12.29
-12.63
-13.03
-13.75
-14.96
-16.68
-18.85
-21.35
-24.21
-27.53
-31.42
-35.81
-40.40
-44.55
-47.56
-48.80
-47.96
-45.15
-40.82
-35.55
-29.85
-24.06
-18.33
-12.68
-7.13
-1.73
3.40
8.10
12.26
15.85
18.83
21.21
23.03
24.30
25.07
25.41
25.41
25.27
25.17
25.25
25.49
25.70
25.62
25.07
24.18
23.22
22.65
22.73
23.38
24.24
24.81
24.74
23.94
22.51
20.58
18.28
15.72
13.07
10.67
8.90
8.03
8.04
8.57
9.08
9.17
8.67
7.74
6.73
5.96
5.54
5.42
5.33
5.02
4.25
2.86
0.79
-1.82
-4.71
-7.49
-9.74
-11.23
-11.98
-12.26
-12.48
-13.02
-14.08
-15.71
-17.82
-20.23
-22.78
-25.28
-27.52
-29.34
-30.74
-31.95
-33.26
-35.02
-37.21
-39.57
-41.49
-42.32
-41.52
-38.88
-34.59
-29.13
-23.15
-17.27
-11.93
-7.24
-3.09
0.80
4.59
8.22
11.43
13.92
15.56
16.47
17.06
17.69
18.58
19.65
20.69
21.44
21.77
21.75
21.58
21.41
21.33
21.29
21.14
20.82
20.29
19.69
19.16
18.80
18.59
18.40
18.05
17.41
16.52
15.53
14.59
13.82
13.21
12.68
12.18
11.73
11.36
11.10
10.86
10.41
9.52
8.03
6.00
3.71
1.60
0.02
-0.92
-1.46
-2.10
-3.34
-5.45
-8.31
-11.48
-14.41
-16.73
-18.34
-19.45
-20.36
-21.21
-21.97
-22.51
-22.74
-22.84
-23.27
-24.56
-27.06
-30.78
-35.25
-39.70
-43.34
-45.51
-45.90
-44.55
-41.76
-37.97
-33.63
-29.03
-24.28
-19.34
-14.05
-8.39
-2.52
3.24
8.54
13.12
16.90
19.82
21.84
22.86
22.85
22.01
20.84
19.98
19.93
20.81
22.37
24.10
25.57
26.53
26.92
26.82
26.27
25.26
23.82
22.09
20.28
18.60
17.13
15.82
14.68
13.68
12.90
12.45
12.37
12.56
12.84
13.02
13.00
12.84
12.53
12.04
11.30
10.22
8.86
7.49
6.43
5.92
5.99
6.40
6.68
6.49
5.55
3.89
1.74
-0.53
-2.62
-4.36
-5.80
-7.19
-8.78
-10.71
-12.91
-15.08
-16.93
-18.35
-19.53
-20.85
-22.72
-25.25
-28.36
-31.81
-35.37
-39.03
-42.82
-46.64
-50.18
-52.80
-53.80
-52.59
-49.00
-43.33
-36.29
-28.84
-21.84
-15.85
-10.98
-6.96
-3.22
0.68
4.95
9.39
13.51
16.82
19.08
20.36
20.98
21.39
21.86
22.48
23.10
23.57
23.77
23.76
23.66
23.62
23.74
23.94
24.16
24.27
24.25
24.22
24.34
24.69
25.19
25.46
25.00
23.48
21.00
18.13
15.74
14.56
14.88
16.42
18.43
20.09
20.80
20.30
18.64
16.07
12.90
9.42
6.00
2.97
0.59
-1.06
-2.14
-3.05
-4.23
-6.10
-8.86
-12.40
-16.27
-19.84
-22.48
-23.85
-24.07
-23.66
-23.42
-24.07
-26.03
-29.49
-34.30
-40.16
-46.56
-52.81
-58.02
-61.24
-61.73
-59.25
-54.22
-47.52
-40.20
-33.19
-26.93
-21.40
-16.29
-11.20
-5.87
-0.36
5.07
10.03
14.15
17.26
19.43
20.84
21.78
22.48
23.05
23.54
23.94
24.26
24.56
24.93
25.37
25.81
26.11
26.15
25.92
25.57
25.37
25.52
26.08
26.90
27.64
28.04
27.89
27.23
26.18
24.90
23.49
22.03
20.52
19.04
17.71
16.61
15.79
15.21
14.74
14.20
13.45
12.42
11.16
9.80
8.51
7.42
6.57
5.88
5.22
4.45
3.46
2.25
0.90
-0.57
-2.13
-3.80
-5.68
-7.88
-10.45
-13.36
-16.47
-19.52
-22.25
-24.57
-26.54
-28.47
-30.73
-33.60
-37.16
-41.23
-45.39
-49.14
-51.98
-53.43
-53.13
-50.90
-46.82
-41.37
-35.32
-29.55
-24.69
-20.88
-17.69
-14.37
-10.19
-4.89
1.19
7.25
12.39
16.04
18.07
18.81
18.77
18.32
17.76
17.19
16.72
16.55
16.92
17.97
19.58
21.34
22.69
23.22
22.86
21.93
21.03
20.71
21.26
22.59
24.26
25.72
26.45
26.13
24.72
22.48
19.93
17.67
16.24
15.87
16.32
17.00
17.22
16.46
14.63
11.99
9.00
6.13
3.68
1.79
0.50
-0.16
-0.25
0.02
0.29
0.08
-0.88
-2.66
-4.97
-7.33
-9.29
-10.74
-11.88
-13.18
-15.06
-17.65
-20.78
-24.09
-27.22
-30.01
-32.53
-34.88
-37.17
-39.48
-41.83
-44.20
-46.56
-48.68
-50.19
-50.60
-49.46
-46.52
-41.93
-36.11
-29.61
-22.99
-16.62
-10.70
-5.31
-0.44
3.87
7.63
10.84
13.52
15.67
17.26
18.36
19.05
19.53
20.11
21.07
22.62
24.80
27.41
30.12
32.51
34.25
35.13
35.13
34.36
33.08
31.58
30.12
28.89
27.89
26.97
25.94
24.61
22.92
20.97
19.01
17.29
15.99
15.14
14.63
14.34
14.18
14.00
13.63
12.80
11.27
9.00
6.36
3.94
2.42
2.16
2.99
4.29
5.25
5.23
4.02
1.72
-1.32
-4.74
-8.14
-11.21
-13.61
-15.20
-16.10
-16.63
-17.19
-18.09
-19.44
-21.25
-23.50
-26.21
-29.35
-32.83
-36.43
-39.98
-43.44
-46.87
-50.33
-53.58
-55.97
-56.60
-54.65
-49.84
-42.58
-33.87
-24.87
-16.46
-9.12
-2.84
2.60
7.38
11.66
15.54
19.15
22.67
26.23
29.73
32.88
35.27
36.56
36.72
36.02
34.86
33.67
32.69
31.95
31.32
30.65
29.83
28.87
27.88
27.00
26.36
25.94
25.61
25.12
24.24
22.91
21.28
19.66
18.39
17.66
17.38
17.24
16.87
16.00
14.57
12.80
10.94
9.22
7.73
6.40
5.14
3.94
2.89
2.07
1.47
0.86
-0.11
-1.71
-3.95
-6.53
-8.93
-10.69
-11.66
-11.93
-11.77
-11.50
-11.27
-11.17
-11.22
-11.47
-12.10
-13.29
-15.17
-17.70
-20.69
-23.75
-26.46
-28.39
-29.33
-29.40
-29.07
-29.07
-30.10
-32.55
-36.17
-40.17
-43.42
-44.80
-43.65
-39.97
-34.28
-27.50
-20.50
-14.03
-8.55
-4.31
-1.29
0.82
2.50
4.42
7.08
10.61
14.75
18.85
22.23
24.43
25.28
24.96
23.90
22.62
21.65
21.44
22.22
23.88
26.04
28.13
29.61
30.19
29.79
28.49
26.51
24.12
21.75
19.92
19.16
19.70
21.34
23.42
25.09
25.76
25.26
23.94
22.43
21.26
20.61
20.33
20.07
19.55
18.63
17.37
15.83
14.06
11.99
9.57
6.80
3.83
0.83
-2.01
-4.62
-7.03
-9.41
-11.99
-14.94
-18.34
-22.09
-25.97
-29.58
-32.58
-34.71
-35.94
-36.52
-36.83
-37.36
-38.55
-40.73
-43.96
-48.03
-52.33
-55.97
-58.01
-57.73
-54.84
-49.58
-42.61
-34.68
-26.51
-18.66
-11.52
-5.28
0.01
4.56
8.74
12.96
17.45
22.10
26.54
30.26
32.82
34.11
34.33
33.90
33.25
32.71
32.43
32.39
32.54
32.80
33.13
33.47
33.67
33.54
32.88
31.58
29.65
27.31
24.83
22.43
20.25
18.29
16.49
14.84
13.33
11.88
10.39
8.66
6.52
3.96
1.17
-1.49
-3.67
-5.12
-5.83
-5.89
-5.49
-4.85
-4.18
-3.77
-3.94
-4.95
-6.70
-8.89
-10.90
-12.17
-12.50
-12.06
-11.33
-10.82
-10.86
-11.55
-12.90
-14.87
-17.38
-20.31
-23.30
-25.89
-27.67
-28.53
-28.74
-29.01
-30.12
-32.76
-37.18
-43.07
-49.54
-55.25
-58.81
-59.13
-55.89
-49.57
-41.35
-32.62
-24.54
-17.79
-12.52
-8.46
-5.11
-1.96
1.51
5.60
10.35
15.37
19.98
23.44
25.25
25.44
24.49
23.20
22.32
22.26
22.95
24.03
24.98
25.37
25.07
24.17
23.04
22.02
21.34
21.08
21.14
21.37
21.62
21.84
22.07
22.31
22.47
22.38
21.76
20.51
18.70
16.63
14.73
13.25
12.26
11.56
10.88
10.02
9.01
7.98
7.14
6.55
6.09
5.51
4.61
3.30
1.73
0.21
-0.96
-1.56
-1.61
-1.42
-1.39
-1.90
-3.15
-5.07
-7.36
-9.71
-11.86
-13.73
-15.38
-16.89
-18.33
-19.77
-21.18
-22.53
-23.88
-25.29
-26.92
-28.94
-31.47
-34.55
-38.07
-41.70
-44.97
-47.31
-48.20
-47.28
-44.49
-40.09
-34.47
-28.19
-21.69
-15.29
-9.21
-3.55
1.59
6.13
9.96
13.00
15.13
16.33
16.73
16.57
16.36
16.63
17.76
19.84
22.60
25.45
27.72
28.94
28.92
27.90
26.39
24.88
23.75
23.13
22.85
22.73
22.51
22.04
21.35
20.46
19.42
18.27
17.13
16.10
15.31
14.83
14.62
14.51
14.23
13.53
12.25
10.38
8.08
5.68
3.56
2.06
1.38
1.47
2.03
2.62
2.75
2.08
0.56
-1.63
-4.11
-6.47
-8.41
-9.79
-10.64
-11.14
-11.52
-12.04
-13.00
-14.59
-16.85
-19.68
-22.79
-25.82
-28.49
-30.75
-32.82
-35.14
-38.12
-41.93
-46.36
-50.78
-54.23
-55.79
-54.79
-51.06
-44.94
-37.26
-28.98
-20.99
-13.90
-7.88
-2.84
1.53
5.54
9.33
12.94
16.24
19.02
21.08
22.33
22.75
22.46
21.70
20.71
19.72
18.90
18.42
18.35
18.80
19.68
20.83
21.97
22.82
23.27
23.36
23.32
23.40
23.75
24.26
24.66
24.58
23.80
22.32
20.37
18.38
16.76
15.81
15.52
15.67
15.85
15.69
14.98
13.77
12.29
10.80
9.42
8.14
6.89
5.68
4.65
3.93
3.52
3.08
2.09
0.14
-2.67
-5.78
-8.33
-9.63
-9.56
-8.59
-7.58
-7.37
-8.44
-10.86
-14.43
-18.74
-23.35
-27.77
-31.51
-34.23
-35.83
-36.62
-37.30
-38.70
-41.43
-45.62
-50.75
-55.75
-59.36
-60.52
-58.68
-53.96
-47.08
-39.09
-31.05
-23.79
-17.64
-12.59
-8.34
-4.40
-0.40
3.87
8.41
12.94
17.10
20.53
22.97
24.33
24.71
24.38
23.75
23.27
23.35
24.25
25.99
28.37
30.95
33.23
34.86
35.62
35.62
35.16
34.58
34.11
33.84
33.65
33.32
32.71
31.74
30.44
28.88
27.15
25.33
23.43
21.53
19.71
18.06
16.65
15.52
14.57
13.64
12.56
11.23
9.59
7.78
5.94
4.25
2.81
1.55
0.30
-1.08
-2.61
-4.19
-5.66
-6.94
-8.13
-9.52
-11.39
-13.89
-16.87
-20.01
-22.97
-25.49
-27.59
-29.42
-31.19
-33.07
-35.18
-37.64
-40.55
-44.00
-47.92
-51.95
-55.46
-57.58
-57.52
-54.81
-49.55
-42.40
-34.40
-26.62
-19.77
-14.06
-9.20
-4.64
0.13
5.28
10.66
15.82
20.30
23.75
26.07
27.36
27.79
27.55
26.82
25.85
24.95
24.53
24.98
26.40
28.64
31.21
33.46
34.84
34.97
33.82
31.62
28.95
26.41
24.62
23.88
24.14
25.01
25.92
26.43
26.26
25.43
24.02
22.17
19.99
17.64
15.37
13.49
12.19
11.42
10.83
9.90
8.23
5.56
1.99
-2.09
-6.12
-9.50
-11.81
-12.94
-13.14
-12.96
-13.01
-13.76
-15.31
-17.46
-19.85
-22.12
-24.10
-25.85
-27.49
-29.18
-31.01
-33.09
-35.61
-38.81
-42.90
-47.86
-53.22
-58.06
-61.21
-61.63
-58.82
-53.08
-45.35
-36.87
-28.80
-21.80
-16.03
-11.26
-7.10
-3.16
0.84
5.07
9.59
14.34
19.13
23.76
28.00
31.59
34.37
36.19
36.96
36.75
35.77
34.43
33.21
32.53
32.57
33.29
34.36
35.43
36.25
36.69
36.79
36.62
36.24
35.62
34.70
33.49
32.03
30.49
29.05
27.79
26.65
25.46
23.96
22.04
19.78
17.48
15.60
14.55
14.46
15.09
15.90
16.22
15.54
13.74
11.05
7.91
4.81
2.02
-0.37
-2.41
-4.14
-5.57
-6.71
-7.70
-8.87
-10.68
-13.49
-17.39
-22.05
-26.81
-30.96
-34.05
-36.04
-37.24
-38.18
-39.34
-41.04
-43.48
-46.72
-50.66
-54.95
-59.03
-62.06
-63.15
-61.65
-57.30
-50.42
-41.81
-32.55
-23.80
-16.46
-10.92
-6.85
-3.44
0.40
5.44
11.79
18.82
25.44
30.57
33.64
34.67
34.13
32.70
30.94
29.28
28.04
27.50
27.82
29.01
30.78
32.58
33.85
34.20
33.60
32.41
31.10
30.09
29.51
29.19
28.77
27.97
26.66
24.94
23.12
21.47
20.20
19.32
18.72
18.21
17.67
16.99
16.10
14.98
13.59
11.97
10.18
8.32
6.56
5.10
4.09
3.57
3.44
3.41
3.11
2.30
0.86
-1.13
-3.42
-5.81
-8.23
-10.78
-13.65
-16.93
-20.56
-24.25
-27.65
-30.47
-32.67
-34.44
-36.11
-38.05
-40.53
-43.61
-47.21
-51.14
-55.19
-59.06
-62.38
-64.66
-65.37
-64.04
-60.41
-54.58
-47.05
-38.61
-30.15
-22.35
-15.48
-9.37
-3.54
2.46
8.83
15.31
21.32
26.24
29.64
31.53
32.37
32.73
33.24
34.25
35.80
37.71
39.75
41.64
43.13
43.95
43.77
42.33
39.63
35.92
31.79
27.97
25.08
23.36
22.62
22.26
21.61
20.07
17.42
13.84
9.88
6.14
3.16
1.14
-0.06
-0.79
-1.43
-2.27
-3.38
-4.84
-6.60
-8.59
-10.57
-12.14
-12.78
-12.11
-10.10
-7.15
-3.96
-1.28
0.51
1.42
1.81
2.20
3.03
4.41
6.21
8.05
9.41
9.85
9.04
6.93
3.73
-0.20
-4.56
-9.25
-14.37
-20.14
-26.54
-33.17
-39.21
-43.68
-45.81
-45.32
-42.47
-37.99
-32.72
-27.34
-22.23
-17.53
-13.20
-9.19
-5.46
-1.98
1.24
4.19
6.89
9.39
11.73
13.91
15.88
17.46
18.46
18.86
18.84
18.87
19.40
20.70
22.64
24.76
26.45
27.34
27.44
27.08
26.68
26.51
26.50
26.40
25.83
24.54
22.52
19.93
17.08
14.28
11.78
9.77
8.32
7.44
7.01
6.86
6.80
6.66
6.34
5.78
4.94
3.87
2.67
1.52
0.60
0.03
-0.13
0.01
0.21
0.11
-0.57
-1.99
-4.10
-6.70
-9.36
-11.73
-13.45
-14.43
-14.77
-14.80
-14.91
-15.48
-16.79
-18.98
-21.99
-25.53
-29.06
-31.99
-33.83
-34.51
-34.47
-34.57
-35.69
-38.37
-42.49
-47.29
-51.57
-54.17
-54.27
-51.64
-46.54
-39.66
-31.79
-23.68
-15.84
-8.61
-2.12
3.54
8.28
12.06
15.06
17.56
19.96
22.56
25.31
27.85
29.71
30.56
30.46
29.73
28.79
28.01
27.54
27.43
27.66
28.24
29.02
29.75
30.01
29.42
27.90
25.68
23.27
21.24
19.99
19.53
19.58
19.74
19.61
18.97
17.76
16.11
14.22
12.39
10.86
9.78
9.16
8.80
8.40
7.72
6.71
5.45
4.17
2.98
1.88
0.75
-0.55
-2.00
-3.47
-4.78
-5.89
-6.96
-8.28
-10.01
-12.15
-14.46
-16.56
-18.18
-19.32
-20.23
-21.31
-22.91
-25.15
-27.92
-30.88
-33.68
-36.13
-38.31
-40.51
-43.10
-46.35
-50.29
-54.63
-58.86
-62.30
-64.22
-63.95
-61.06
-55.53
-47.77
-38.65
-29.21
-20.46
-13.00
-6.94
-1.98
2.42
6.70
11.12
15.60
19.90
23.63
26.51
28.34
29.17
29.26
29.00
28.82
29.07
29.95
31.42
33.32
35.35
37.18
38.48
38.95
38.37
36.67
34.13
31.21
28.53
26.63
25.72
25.65
25.98
26.03
25.24
23.21
19.92
15.74
11.44
7.89
5.86
5.71
7.22
9.70
12.26
14.18
15.12
15.07
14.19
12.67
10.64
8.27
5.88
3.84
2.43
1.64
1.15
0.45
-0.87
-2.89
-5.33
-7.71
-9.60
-10.87
-11.67
-12.40
-13.53
-15.37
-17.99
-21.27
-25.01
-29.09
-33.54
-38.53
-44.23
-50.53
-57.02
-62.97
-67.60
-70.24
-70.60
-68.70
-64.82
-59.33
-52.59
-45.00
-37.00
-29.17
-22.05
-16.02
-11.15
-7.13
-3.52
0.09
3.87
7.74
11.39
14.60
17.22
19.27
20.86
22.10
23.07
23.85
24.50
25.13
25.80
26.51
27.15
27.56
27.63
27.35
26.87
26.40
26.09
25.97
25.88
25.61
25.00
24.01
22.74
21.35
20.01
18.83
17.87
17.15
16.69
16.49
16.49
16.61
16.74
16.81
16.72
16.47
16.08
15.59
15.10
14.72
14.50
14.48
14.57
14.55
14.22
13.39
11.88
9.57
6.51
2.86
-1.07
-4.87
-8.15
-10.66
-12.39
-13.63
-14.86
-16.55
-19.06
-22.39
-26.23
-30.11
-33.56
-36.44
-38.95
-41.56
-44.65
-48.28
-52.09
-55.35
-57.30
-57.35
-55.28
-51.22
-45.48
-38.54
-30.91
-23.13
-15.73
-9.15
-3.61
0.87
4.45
7.46
10.33
13.44
17.10
21.35
25.86
30.05
33.26
35.03
35.38
34.67
33.51
32.44
31.72
31.35
31.21
31.21
31.30
31.43
31.45
31.15
30.38
29.15
27.64
26.19
25.03
24.18
23.48
22.57
21.18
19.23
16.86
14.36
12.06
10.16
8.70
7.58
6.66
5.75
4.70
3.42
1.88
0.12
-1.82
-3.90
-6.08
-8.33
-10.56
-12.61
-14.30
-15.49
-16.13
-16.40
-16.61
-17.12
-18.24
-20.05
-22.49
-25.32
-28.30
-31.21
-33.96
-36.56
-39.02
-41.37
-43.67
-45.88
-47.94
-49.67
-50.75
-50.75
-49.25
-45.95
-40.89
-34.45
-27.26
-20.00
-13.23
-7.24
-2.09
2.39
6.50
10.48
14.48
18.47
22.27
25.62
28.31
30.32
31.75
32.88
34.00
35.25
36.54
37.56
37.87
37.24
35.84
34.15
32.87
32.49
33.03
34.06
34.94
35.09
34.28
32.58
30.19
27.34
24.23
21.07
18.23
16.14
15.09
15.14
15.98
17.03
17.76
17.64
16.40
14.10
11.06
7.81
4.97
2.99
1.96
1.62
1.49
1.08
0.09
-1.62
-4.05
-7.05
-10.38
-13.72
-16.59
-18.65
-19.83
-20.40
-20.88
-21.84
-23.57
-26.11
-29.24
-32.62
-36.06
-39.47
-42.88
-46.39
-50.12
-54.03
-57.89
-61.19
-63.12
-62.95
-60.20
-54.97
-47.93
-40.05
-32.27
-25.19
-18.95
-13.29
-7.94
-2.64
2.63
7.76
12.57
16.95
20.84
24.20
26.98
29.18
30.81
31.99
32.88
33.67
34.54
35.54
36.68
37.87
38.91
39.54
39.54
38.77
37.34
35.56
33.89
32.65
31.92
31.47
30.90
29.91
28.45
26.72
25.03
23.63
22.51
21.54
20.45
19.06
17.34
15.46
13.64
12.08
10.90
10.05
9.44
8.95
8.53
8.17
7.84
7.53
7.07
6.29
4.96
3.04
0.61
-2.11
-4.79
-7.19
-9.19
-10.82
-12.27
-13.83
-15.69
-18.00
-20.76
-23.84
-27.06
-30.22
-33.24
-36.08
-38.86
-41.76
-45.06
-48.91
-53.36
-58.13
-62.61
-65.93
-67.09
-65.34
-60.45
-52.89
-43.68
-34.09
-25.22
-17.71
-11.61
-6.64
-2.38
1.57
5.48
9.52
13.82
18.42
23.20
27.86
31.94
35.01
36.81
37.32
36.87
35.95
35.08
34.69
34.89
35.50
36.12
36.25
35.56
34.03
31.98
29.89
28.24
27.25
26.84
26.72
26.55
26.07
25.20
23.97
22.41
20.54
18.36
15.94
13.41
10.94
8.71
6.73
4.92
3.09
1.13
-0.94
-3.01
-4.92
-6.55
-7.93
-9.15
-10.36
-11.67
-13.10
-14.62
-16.11
-17.46
-18.56
-19.39
-20.09
-20.86
-21.93
-23.37
-25.09
-26.80
-28.22
-29.26
-30.06
-31.03
-32.60
-35.07
-38.42
-42.33
-46.11
-48.96
-50.09
-48.94
-45.35
-39.60
-32.35
-24.42
-16.61
-9.49
-3.32
1.88
6.30
10.18
13.77
17.24
20.64
23.94
27.05
29.86
32.30
34.29
35.78
36.69
36.99
36.63
35.67
34.26
32.64
31.07
29.86
29.13
28.84
28.77
28.60
28.06
27.09
25.77
24.41
23.31
22.61
22.28
22.08
21.70
20.92
19.62
17.85
15.76
13.60
11.59
9.83
8.36
7.08
5.97
5.05
4.36
3.96
3.78
3.52
2.78
1.11
-1.70
-5.48
-9.63
-13.36
-15.96
-17.10
-17.04
-16.39
-15.92
-16.22
-17.48
-19.62
-22.41
-25.59
-28.93
-32.25
-35.33
-37.98
-40.21
-42.21
-44.33
-46.87
-49.80
-52.72
-54.89
-55.48
-53.86
-49.76
-43.39
-35.38
-26.65
-18.15
-10.68
-4.66
-0.12
3.26
5.94
8.37
10.81
13.33
15.85
18.17
20.08
21.39
21.96
21.75
20.94
19.80
18.69
17.99
17.99
18.72
20.09
21.80
23.48
24.85
25.76
26.22
26.33
26.17
25.78
25.10
24.12
22.93
21.72
20.72
20.10
19.89
20.05
20.47
20.98
21.34
21.34
20.77
19.53
17.77
15.75
13.83
12.24
11.06
10.11
9.18
8.14
6.88
5.41
3.69
1.71
-0.50
-2.81
-5.00
-6.91
-8.47
-9.87
-11.39
-13.30
-15.80
-18.91
-22.52
-26.41
-30.33
-33.91
-36.83
-38.95
-40.39
-41.59
-43.25
-45.95
-49.93
-54.78
-59.58
-63.15
-64.43
-62.86
-58.44
-51.78
-43.74
-35.30
-27.28
-20.29
-14.72
-10.69
-8.00
-6.03
-4.01
-1.13
3.02
8.32
14.12
19.61
24.10
27.27
29.13
29.88
29.83
29.36
28.89
28.86
29.62
31.19
33.27
35.31
36.78
37.35
36.88
35.47
33.34
30.81
28.25
26.09
24.62
23.84
23.42
22.83
21.59
19.56
16.86
13.90
11.04
8.48
6.30
4.55
3.27
2.58
2.56
3.13
4.04
4.99
5.67
5.96
5.85
5.42
4.74
3.72
2.26
0.23
-2.37
-5.41
-8.66
-11.88
-14.91
-17.67
-20.16
-22.47
-24.67
-26.89
-29.25
-31.84
-34.74
-37.94
-41.44
-45.08
-48.52
-51.25
-52.58
-51.81
-48.50
-42.72
-35.09
-26.69
-18.60
-11.66
-6.17
-1.95
1.46
4.53
7.50
10.46
13.30
15.91
18.28
20.49
22.65
24.78
26.73
28.31
29.33
29.74
29.68
29.46
29.32
29.45
29.84
30.34
30.83
31.23
31.54
31.81
31.99
31.94
31.45
30.32
28.42
25.84
22.89
19.92
17.32
15.36
14.01
13.09
12.25
11.13
9.54
7.56
5.44
3.57
2.25
1.58
1.44
1.51
1.43
0.94
-0.04
-1.48
-3.27
-5.24
-7.27
-9.20
-10.80
-11.96
-12.62
-12.97
-13.39
-14.34
-16.17
-19.02
-22.64
-26.50
-30.14
-33.20
-35.69
-37.92
-40.32
-43.22
-46.81
-50.90
-55.13
-58.95
-61.65
-62.49
-60.85
-56.45
-49.51
-40.82
-31.51
-22.68
-15.12
-9.07
-4.31
-0.42
3.03
6.32
9.63
12.96
16.31
19.48
22.23
24.16
25.00
24.78
23.84
22.77
22.15
22.33
23.32
24.84
26.53
28.07
29.30
30.14
30.46
30.23
29.36
27.91
26.08
24.21
22.54
21.22
20.18
19.20
18.12
16.84
15.43
14.09
13.07
12.52
12.50
12.92
13.56
14.13
14.34
14.05
13.23
12.07
10.74
9.36
7.90
6.25
4.30
2.07
-0.24
-2.32
-3.94
-5.02
-5.64
-6.06
-6.57
-7.36
-8.54
-10.17
-12.20
-14.57
-17.16
-19.80
-22.32
-24.59
-26.59
-28.46
-30.52
-33.16
-36.65
-40.97
-45.70
-49.98
-52.83
-53.36
-51.11
-46.21
-39.32
-31.46
-23.57
-16.38
-10.20
-5.02
-0.62
3.25
6.73
9.94
12.87
15.51
17.85
19.79
21.20
21.89
21.74
20.78
19.33
17.92
17.12
17.37
18.78
21.06
23.70
26.12
27.88
28.74
28.65
27.66
25.92
23.74
21.53
19.77
18.85
18.92
19.85
21.19
22.42
23.03
22.65
21.11
18.48
15.19
11.76
8.85
6.90
5.95
5.69
5.56
5.00
3.68
1.53
-1.32
-4.53
-7.72
-10.52
-12.61
-13.84
-14.31
-14.45
-14.82
-15.93
-17.94
-20.72
-23.86
-26.90
-29.50
-31.57
-33.21
-34.72
-36.53
-39.01
-42.36
-46.44
-50.69
-54.27
-56.26
-55.97
-53.13
-48.04
-41.33
-33.78
-26.12
-18.85
-12.26
-6.40
-1.20
3.57
8.13
12.69
17.30
21.76
25.74
28.81
30.69
31.34
30.93
29.82
28.48
27.30
26.59
26.48
26.94
27.75
28.59
29.17
29.24
28.73
27.70
26.24
24.53
22.74
21.12
19.96
19.48
19.75
20.63
21.73
22.59
22.89
22.49
21.52
20.31
19.08
17.88
16.59
15.03
13.06
10.74
8.34
6.16
4.42
3.12
1.98
0.69
-1.06
-3.37
-6.06
-8.72
-10.97
-12.47
-13.20
-13.40
-13.49
-13.88
-14.80
-16.26
-18.15
-20.35
-22.78
-25.28
-27.72
-29.78
-31.24
-32.09
-32.61
-33.32
-34.73
-37.03
-39.95
-42.78
-44.53
-44.25
-41.42
-35.98
-28.53
-20.06
-11.68
-4.27
1.75
6.47
10.17
13.17
15.68
17.80
19.66
21.52
23.66
26.17
28.87
31.29
32.84
33.22
32.47
31.02
29.44
28.17
27.37
26.91
26.53
25.90
24.85
23.40
21.73
20.22
19.19
18.87
19.31
20.36
21.68
22.91
23.76
24.11
24.02
23.57
22.85
21.89
20.68
19.25
17.76
16.37
15.16
14.11
13.01
11.62
9.72
7.30
4.41
1.20
-2.23
-5.81
-9.47
-13.01
-16.24
-18.92
-20.94
-22.37
-23.41
-24.37
-25.42
-26.68
-28.11
-29.69
-31.42
-33.41
-35.88
-38.99
-42.80
-47.17
-51.75
-56.08
-59.65
-61.94
-62.50
-61.01
-57.32
-51.56
-44.26
-36.14
-28.05
-20.67
-14.35
-8.97
-4.20
0.38
4.98
9.56
13.90
17.76
21.01
23.74
26.11
28.27
30.32
32.19
33.79
34.98
35.74
36.03
35.88
35.36
34.52
33.44
32.21
30.96
29.79
28.81
27.96
27.08
25.87
24.01
21.42
18.38
15.46
13.37
12.52
12.91
14.04
15.20
15.82
15.62
14.64
13.06
11.14
9.08
7.11
5.46
4.36
3.85
3.72
3.61
3.01
1.54
-1.00
-4.57
-8.85
-13.27
-17.23
-20.17
-21.86
-22.54
-22.78
-23.30
-24.65
-27.00
-30.24
-34.14
-38.55
-43.38
-48.39
-53.07
-56.59
-58.01
-56.69
-52.63
-46.44
-39.19
-31.99
-25.62
-20.37
-16.01
-12.10
-8.17
-3.97
0.51
5.10
9.50
13.50
16.98
19.88
22.21
24.02
25.33
26.21
26.69
26.88
26.86
26.79
26.78
26.86
26.95
26.93
26.67
26.19
25.61
25.10
24.84
24.84
24.97
25.03
24.89
24.58
24.18
23.82
23.43
22.80
21.73
20.13
18.24
16.40
15.02
14.29
14.10
14.09
13.87
13.19
11.97
10.34
8.48
6.51
4.50
2.51
0.55
-1.37
-3.27
-5.22
-7.28
-9.53
-11.99
-14.63
-17.39
-20.15
-22.71
-24.85
-26.43
-27.35
-27.76
-28.03
-28.75
-30.50
-33.71
-38.34
-43.75
-48.86
-52.31
-53.07
-50.76
-45.73
-38.98
-31.76
-25.07
-19.41
-14.83
-10.96
-7.31
-3.47
0.81
5.65
10.91
16.39
21.72
26.46
30.17
32.45
33.14
32.35
30.59
28.56
27.05
26.57
27.18
28.56
30.02
30.97
30.92
29.65
27.15
23.57
19.21
14.50
10.10
6.57
4.27
3.20
2.99
3.10
3.06
2.59
1.64
0.40
-0.94
-2.13
-2.89
-3.06
-2.62
-1.76
-0.90
-0.46
-0.67
-1.53
-2.78
-4.08
-5.25
-6.22
-7.10
-7.94
-8.82
-9.68
-10.56
-11.55
-12.73
-14.29
-16.22
-18.37
-20.53
-22.50
-24.20
-25.73
-27.33
-29.34
-32.08
-35.68
-39.95
-44.39
-48.19
-50.51
-50.73
-48.69
-44.67
-39.22
-32.95
-26.31
-19.57
-12.90
-6.52
-0.73
4.19
8.19
11.46
14.46
17.65
21.19
24.90
28.31
30.93
32.44
32.94
32.74
32.25
31.73
31.27
30.77
30.19
29.58
29.09
28.89
29.01
29.23
29.31
28.93
27.94
26.36
24.40
22.30
20.29
18.44
16.62
14.73
12.63
10.26
7.57
4.44
0.75
-3.56
-8.39
-13.37
-17.93
-21.47
-23.59
-24.25
-23.83
-22.94
-22.26
-22.33
-23.35
-25.22
-27.48
-29.60
-30.99
-31.32
-30.54
-28.87
-26.67
-24.31
-21.99
-19.78
-17.60
-15.29
-12.73
-9.92
-7.06
-4.52
-2.85
-2.58
-4.04
-7.06
-10.96
-14.71
-17.23
-17.79
-16.21
-12.92
-8.73
-4.52
-1.00
1.49
2.90
3.45
3.58
3.77
4.49
6.03
8.39
11.30
14.33
17.12
19.44
21.21
22.47
23.26
23.67
23.84
24.06
24.68
25.96
27.89
30.10
32.00
33.00
32.80
31.48
29.44
27.18
25.05
23.14
21.30
19.35
17.14
14.67
12.02
9.31
6.63
4.01
1.46
-1.06
-3.55
-6.02
-8.43
-10.69
-12.72
-14.47
-15.92
-17.09
-18.03
-18.77
-19.36
-19.81
-20.21
-20.64
-21.15
-21.62
-21.80
-21.26
-19.63
-16.79
-12.86
-8.26
-3.54
0.80
4.39
7.05
8.73
9.47
9.33
8.45
6.94
4.94
2.63
0.26
-1.84
-3.23
-3.50
-2.46
-0.27
2.55
5.33
7.49
8.80
9.40
9.74
10.20
10.93
11.85
12.69
13.27
13.55
13.72
13.84
13.98
14.01
13.74
13.17
12.53
12.22
12.66
13.93
15.75
17.59
18.91
19.46
19.42
19.21
19.24
19.73
20.50
21.17
21.33
20.67
19.12
16.88
14.38
12.06
10.34
9.38
9.12
9.29
9.53
9.56
9.23
8.34
6.75
4.39
1.35
-1.97
-4.89
-6.74
-7.17
-6.34
-4.89
-3.63
-3.21
-3.94
-5.74
-8.24
-11.03
-13.72
-16.05
-17.97
-19.57
-21.05
-22.65
-24.51
-26.65
-29.02
-31.64
-34.63
-38.16
-42.30
-46.81
-51.10
-54.33
-55.68
-54.70
-51.43
-46.38
-40.33
-34.02
-27.94
-22.23
-16.79
-11.41
-6.03
-0.78
4.07
8.19
11.45
13.85
15.53
16.66
17.38
17.78
17.89
17.87
17.93
18.32
19.23
20.72
22.65
24.75
26.62
27.91
28.38
27.96
26.78
25.10
23.25
21.46
19.88
18.46
17.07
15.61
14.00
12.30
10.64
9.19
8.12
7.58
7.65
8.29
9.38
10.58
11.57
12.09
12.08
11.73
11.35
11.25
11.52
12.10
12.74
13.16
13.13
12.46
11.08
8.99
6.29
3.15
-0.22
-3.61
-6.90
-9.96
-12.79
-15.37
-17.73
-19.86
-21.84
-23.95
-26.55
-30.08
-34.85
-40.83
-47.54
-54.11
-59.55
-63.00
-63.98
-62.43
-58.75
-53.54
-47.57
-41.55
-36.02
-31.16
-26.82
-22.48
-17.54
-11.59
-4.55
3.22
11.09
18.30
24.15
28.25
30.51
31.34
31.43
31.65
32.76
35.02
38.20
41.69
44.79
47.01
48.11
48.06
46.95
44.91
42.14
39.05
36.11
33.78
32.24
31.30
30.48
29.26
27.29
24.62
21.61
18.74
16.37
14.58
13.15
11.69
9.85
7.45
4.65
1.75
-0.93
-3.17
-4.98
-6.50
-7.96
-9.52
-11.29
-13.21
-15.19
-17.07
-18.77
-20.32
-21.86
-23.56
-25.53
-27.70
-29.93
-32.05
-33.98
-35.76
-37.50
-39.24
-40.95
-42.62
-44.37
-46.48
-49.27
-52.83
-56.73
-60.14
-61.91
-61.12
-57.38
-51.00
-42.88
-34.11
-25.67
-18.06
-11.34
-5.14
0.98
7.36
14.08
20.85
27.14
32.31
35.85
37.48
37.25
35.51
32.77
29.64
26.71
24.49
23.30
23.24
24.21
25.82
27.55
28.85
29.37
29.09
28.31
27.54
27.26
27.65
28.57
29.56
30.02
29.56
28.06
25.69
22.78
19.57
16.28
13.05
10.12
7.81
6.46
6.21
6.96
8.25
9.43
9.94
9.43
7.92
5.75
3.45
1.45
0.00
-0.88
-1.43
-1.81
-2.19
-2.57
-2.96
-3.51
-4.55
-6.44
-9.33
-13.01
-16.90
-20.37
-23.02
-24.85
-26.28
-27.92
-30.30
-33.76
-38.35
-43.74
-49.34
-54.25
-57.52
-58.39
-56.51
-52.08
-45.83
-38.70
-31.60
-25.19
-19.83
-15.57
-12.25
-9.59
-7.13
-4.44
-1.15
2.85
7.44
12.22
16.67
20.23
22.52
23.51
23.44
22.87
22.36
22.38
23.11
24.50
26.29
28.20
30.02
31.61
32.84
33.56
33.59
32.83
31.34
29.39
27.37
25.72
24.67
24.19
24.00
23.62
22.65
20.97
18.82
16.71
15.16
14.44
14.46
14.83
15.08
14.88
14.16
13.03
11.58
9.85
7.76
5.23
2.36
-0.61
-3.37
-5.75
-7.74
-9.55
-11.37
-13.40
-15.72
-18.25
-20.93
-23.63
-26.19
-28.39
-30.06
-31.11
-31.60
-31.74
-31.82
-32.16
-32.99
-34.37
-36.12
-37.93
-39.29
-39.68
-38.70
-36.12
-32.01
-26.73
-20.88
-15.18
-10.37
-6.94
-4.89
-3.80
-2.82
-1.14
1.69
5.59
9.92
13.82
16.53
17.61
17.01
15.10
12.55
10.15
8.74
8.88
10.72
13.93
17.84
21.64
24.64
26.34
26.62
