1479932990.00
64.000000
-0.00
-0.00
-0.00
-0.00
-0.00
-0.00
-0.00
-0.00
-0.00
-0.00
0.00
0.01
0.01
-0.00
-0.03
-0.05
-0.05
0.00
0.13
0.36
0.66
1.01
1.37
1.72
2.06
2.40
2.79
3.24
3.80
4.42
5.06
5.66
6.20
6.68
7.15
7.68
8.31
9.14
10.09
11.04
11.88
12.56
13.14
13.76
14.65
15.96
17.91
20.32
22.90
25.38
27.58
29.57
31.68
34.32
37.81
42.54
48.15
54.10
59.83
64.97
69.58
74.14
79.34
85.71
93.76
103.00
112.62
121.73
129.77
136.75
143.30
150.75
157.77
166.64
177.95
191.79
206.97
220.57
228.25
225.36
208.53
176.87
132.76
80.05
23.07
-34.94
-92.44
-149.16
-205.23
-260.37
-313.74
-363.87
-409.83
-450.91
-486.50
-515.74
-537.23
-549.22
-549.96
-538.37
-514.21
-478.67
-433.88
-382.45
-327.02
-269.84
-212.63
-156.66
-102.95
-52.37
-5.90
35.58
71.43
101.35
125.50
144.38
158.69
169.15
176.37
180.75
182.57
182.07
179.51
175.23
169.65
163.18
156.15
148.81
141.30
133.69
126.02
118.33
110.69
103.16
95.80
88.68
81.83
75.25
68.95
62.95
57.25
51.86
46.78
42.03
37.59
33.45
29.61
26.07
22.81
19.83
17.11
14.67
12.48
10.54
8.83
7.35
6.07
4.97
4.05
3.27
2.62
2.09
1.65
1.30
1.01
0.79
0.61
0.48
0.37
0.29
0.22
0.18
0.14
0.11
0.09
0.08
0.07
0.06
0.05
0.05
0.04
0.04
0.04
0.03
0.03
0.03
0.03
0.03
0.03
0.03
0.02
0.02
0.02
0.02
0.02
0.02
0.02
0.02
0.02
0.02
0.02
0.02
0.02
0.02
0.02
0.01
0.01
0.01
0.01
0.01
0.01
0.01
0.01
0.01
0.02
0.02
0.02
0.04
0.05
0.07
0.09
0.12
0.15
0.18
0.22
0.26
0.30
0.34
0.38
0.42
0.47
0.51
0.56
0.62
0.67
0.73
0.79
0.87
0.94
1.03
1.12
1.23
1.35
1.49
1.63
1.80
1.98
2.20
2.44
2.71
3.00
3.29
3.58
3.86
4.15
4.47
4.86
5.31
5.84
6.43
7.04
7.66
8.27
8.88
9.54
10.27
11.10
12.02
13.01
14.01
14.97
15.88
16.74
17.60
18.51
19.39
20.17
20.61
20.45
19.49
17.61
14.87
11.46
7.66
3.68
-0.38
-4.52
-8.88
-13.50
-18.30
-22.94
-26.96
-29.90
-31.54
-32.01
-31.77
-31.48
-31.68
-32.60
-34.04
-35.47
-36.34
-36.31
-35.46
-34.24
-33.24
-33.02
-33.94
-36.24
-39.85
-44.22
-48.07
-49.48
-46.50
-38.04
-24.59
-8.40
7.33
19.63
26.98
29.61
29.09
27.22
25.16
23.18
21.00
18.40
15.61
13.24
11.81
11.39
11.38
10.98
9.42
6.53
2.75
-1.13
-4.29
-6.28
-7.20
-7.61
-8.26
-9.79
-12.44
-15.99
-19.84
-23.18
-25.26
-25.13
-22.36
-17.03
-9.76
-1.55
6.51
13.55
19.17
23.44
26.72
29.32
31.32
32.62
33.03
32.54
31.39
30.05
28.96
28.43
28.41
28.64
28.88
28.93
28.77
28.46
28.10
27.72
27.30
26.80
26.16
25.35
24.32
23.03
21.46
19.60
17.43
15.02
12.43
9.77
7.21
4.89
2.87
1.11
-0.54
-2.25
-4.14
-6.19
-8.29
-10.31
-12.19
-14.02
-15.98
-18.23
-20.81
-23.61
-26.41
-29.00
-31.31
-33.40
-35.45
-37.71
-40.38
-43.57
-47.22
-51.02
-54.40
-56.58
-56.70
-54.07
-48.39
-39.95
-29.51
-18.19
-7.07
3.00
11.57
18.54
24.03
28.24
31.38
33.66
35.25
36.35
37.11
37.64
37.95
38.02
37.84
37.44
37.01
36.77
36.93
37.49
38.24
38.81
38.79
37.91
36.16
33.75
31.04
28.35
25.84
23.51
21.27
19.01
16.69
14.29
11.79
9.13
6.26
3.17
-0.02
-3.09
-5.78
-7.89
-9.44
-10.65
-11.88
-13.48
-15.62
-18.26
-21.17
-24.07
-26.77
-29.24
-31.64
-34.23
-37.21
-40.70
-44.67
-48.96
-53.21
-56.90
-59.29
-59.60
-57.25
-52.10
-44.57
-35.52
-26.01
-16.91
-8.78
-1.77
4.20
9.33
13.72
17.43
20.46
22.81
24.52
25.71
26.52
27.10
27.60
28.12
28.64
29.08
29.31
29.22
28.80
28.16
27.47
26.90
26.55
26.36
26.14
25.63
24.63
23.07
21.09
18.98
17.01
15.34
13.88
12.43
10.75
8.74
6.46
4.12
1.91
-0.11
-2.00
-3.90
-5.99
-8.40
-11.17
-14.27
-17.59
-20.96
-24.17
-27.07
-29.62
-31.97
-34.48
-37.54
-41.49
-46.35
-51.87
-57.40
-62.11
-65.01
-65.18
-62.02
-55.45
-46.06
-35.03
-23.81
-13.60
-4.98
2.22
8.61
14.84
21.08
27.01
32.01
35.61
37.82
39.08
40.03
41.14
42.48
43.87
45.06
45.96
46.70
47.50
48.47
49.45
50.03
49.70
48.09
45.09
40.89
35.85
30.37
24.78
19.27
13.91
8.74
3.76
-0.98
-5.36
-9.20
-12.35
-14.74
-16.42
-17.60
-18.51
-19.37
-20.24
-21.10
-21.87
-22.57
-23.33
-24.38
-25.92
-28.02
-30.52
-33.13
-35.53
-37.54
-39.23
-40.84
-42.74
-45.22
-48.35
-51.88
-55.26
-57.73
-58.48
-56.87
-52.55
-45.57
-36.42
-25.94
-15.18
-5.13
3.46
10.27
15.35
19.00
21.61
23.50
24.87
25.83
26.45
26.82
27.04
27.22
27.49
27.98
28.88
30.33
32.36
34.78
37.10
38.65
38.71
36.83
33.08
28.10
22.94
18.75
16.25
15.57
16.21
17.37
18.33
18.73
18.73
18.79
19.47
21.33
24.78
30.21
37.73
46.98
56.76
64.95
68.98
66.72
57.43
42.32
24.27
6.81
-7.10
-15.99
-20.11
-20.80
-19.85
-18.90
-19.30
-22.25
-28.74
-39.17
-52.88
-67.92
-81.32
-89.96
-91.52
-85.36
-72.61
-55.90
-38.39
-22.90
-11.19
-3.65
0.45
2.52
3.87
5.25
6.67
7.71
8.02
7.64
7.14
7.19
8.23
10.22
12.66
14.94
16.66
17.74
18.43
19.02
19.71
20.52
21.32
21.96
22.30
22.29
21.99
21.60
21.46
21.93
23.20
25.11
27.20
28.78
29.22
28.25
26.01
23.01
19.90
17.27
15.39
14.16
13.22
12.07
10.31
7.79
4.63
1.13
-2.35
-5.61
-8.61
-11.43
-14.13
-16.71
-19.10
-21.28
-23.34
-25.42
-27.55
-29.51
-30.76
-30.59
-28.43
-24.10
-17.94
-10.57
-2.68
5.30
13.18
20.78
27.71
33.26
36.70
37.67
36.57
34.45
32.40
31.24
31.34
32.44
33.89
34.97
35.34
34.94
33.93
32.29
30.10
27.73
25.62
24.08
23.10
22.39
21.50
20.16
17.80
14.47
10.92
7.96
5.88
4.27
2.58
0.25
-2.73
-7.53
-14.22
-21.34
-26.96
-30.14
-31.27
-31.06
-30.82
-31.38
-36.49
-47.76
-62.88
-77.58
-88.51
-94.66
-96.21
-95.54
-95.12
-102.22
-120.17
-145.48
-171.25
-192.10
-206.28
-213.46
-215.98
-215.77
-221.31
-237.48
-262.12
-289.97
-317.42
-343.84
-368.57
-393.27
-373.01
-291.31
-171.86
-55.63
32.88
91.56
119.27
131.76
137.18
139.19
131.72
110.38
83.56
59.39
43.03
35.45
37.21
46.46
62.61
80.68
98.35
118.48
143.65
173.57
205.33
237.22
266.96
293.65
313.32
322.72
321.99
311.33
290.68
260.51
223.74
183.19
142.04
101.40
57.35
14.65
-20.40
-45.78
-65.71
-83.00
-98.57
-112.65
-123.62
-131.52
-135.91
-137.45
-136.67
-132.94
-124.25
-109.28
-88.11
-62.23
-34.45
-7.10
17.01
35.41
46.81
51.39
50.20
44.99
38.05
31.35
26.55
23.30
19.29
11.32
-3.41
-26.44
-57.32
-93.25
-129.82
-161.74
-184.75
-196.47
-196.59
-186.34
-167.60
-142.06
-110.56
-73.36
-30.71
16.04
64.22
110.76
153.71
193.34
231.95
272.37
315.62
359.60
399.41
429.48
446.12
449.17
441.57
427.51
410.21
390.70
368.16
341.07
308.81
272.29
233.31
193.28
152.63
110.96
67.66
22.44
-24.40
-71.52
-116.67
-157.16
-190.53
-215.01
-229.73
-234.76
-231.11
-221.06
-207.03
-190.78
-173.44
-155.88
-138.80
-122.61
-107.37
-93.00
-81.19
-72.81
-66.89
-61.51
-55.46
-48.83
-42.43
-37.22
-33.83
-36.04
-45.15
-58.18
-69.94
-77.07
-79.29
-78.41
-76.80
-76.36
-83.83
-101.86
-126.22
-149.18
-165.74
-175.44
-180.58
-184.27
-189.39
-206.22
-240.97
-291.20
-348.63
-405.40
-455.72
-494.75
-518.64
-477.43
-356.47
-190.77
-35.37
78.56
149.49
189.80
213.05
228.55
240.68
242.73
230.57
208.42
185.67
169.31
161.36
160.61
164.51
170.46
170.44
160.02
141.81
122.72
107.99
99.46
96.62
97.87
101.44
102.10
97.03
87.87
78.39
70.55
63.47
55.02
43.86
30.53
15.56
0.81
-10.99
-18.02
-20.71
-21.06
-20.69
-19.91
-17.78
-13.87
-8.15
-1.14
6.08
12.00
15.25
15.37
12.95
9.75
7.80
8.46
11.60
15.44
17.48
15.79
10.01
1.21
-8.95
-19.79
-31.59
-45.21
-60.81
-76.81
-89.91
-96.60
-94.88
-85.35
-71.10
-56.49
-45.37
-39.60
-38.76
-39.86
-39.05
-32.92
-19.74
-0.57
21.08
40.41
53.08
56.74
52.09
42.28
31.47
23.30
19.77
21.16
26.45
34.17
42.46
49.52
53.59
53.36
48.50
40.14
31.04
24.88
24.39
29.66
37.53
42.15
37.37
19.45
-10.84
-47.71
-81.85
-103.73
-106.83
-89.84
-56.79
-14.97
27.53
63.36
87.36
96.59
89.94
68.47
36.34
1.40
-26.43
-36.56
-24.65
4.79
39.70
65.71
73.16
61.69
39.67
19.09
8.75
9.94
16.68
21.21
18.57
8.85
-3.92
-15.22
-22.97
-28.26
-33.74
-40.74
-48.02
-52.60
-51.52
-44.81
-34.94
-24.99
-16.59
-9.15
-0.80
9.25
19.01
24.05
20.06
6.16
-13.28
-30.31
-37.17
-30.21
-11.48
13.01
36.94
56.57
71.22
81.51
85.81
79.55
57.52
18.24
-32.70
-82.59
-116.14
-121.82
-96.27
-46.19
15.37
74.73
122.52
155.40
174.30
181.32
173.76
149.53
108.82
56.97
4.34
-37.66
-62.09
-69.66
-67.22
-62.54
-58.50
-52.26
-38.38
-14.44
15.11
39.57
47.06
30.65
-7.68
-57.74
-106.66
-144.28
-165.67
-170.35
-159.38
-134.11
-96.68
-52.21
-9.99
17.92
21.65
-0.93
-41.82
-85.51
-116.14
-124.60
-111.46
-83.96
-50.39
-15.52
19.42
53.11
81.38
97.76
97.86
83.51
63.10
47.17
42.89
50.77
66.01
82.92
97.69
108.69
114.82
114.31
105.86
90.68
73.52
61.49
60.77
73.98
99.85
134.49
173.35
211.46
242.78
259.85
256.04
229.78
187.40
142.23
109.42
98.83
110.69
135.86
160.90
174.40
171.45
153.96
128.00
99.67
72.14
45.53
18.42
-9.78
-37.98
-64.02
-86.52
-106.22
-125.81
-148.22
-174.65
-203.14
-228.58
-244.81
-247.41
-235.86
-214.22
-189.49
-168.54
-155.11
-148.49
-144.59
-138.72
-128.29
-114.08
-99.28
-87.39
-80.00
-76.12
-73.05
-68.19
-60.67
-51.56
-43.03
-36.90
-33.72
-32.77
-32.80
-32.94
-33.18
-34.28
-37.18
-42.42
-49.77
-58.25
-66.48
-73.24
-77.88
-80.60
-82.28
-84.04
-86.60
-89.82
-92.64
-93.47
-90.83
-83.96
-73.11
-59.40
-44.33
-29.36
-15.53
-3.58
6.01
12.90
17.05
18.77
18.73
17.79
16.51
15.10
13.32
10.96
8.08
5.23
3.21
2.76
4.22
7.49
12.16
17.80
24.03
30.62
37.31
43.77
49.69
54.76
58.77
61.59
63.07
63.18
61.99
59.81
57.03
54.07
51.11
48.11
44.81
40.97
36.55
31.83
27.33
23.57
20.83
19.03
17.80
16.70
15.46
14.09
12.84
12.03
11.80
12.05
12.43
12.54
12.08
10.97
9.33
7.36
5.28
3.23
1.30
-0.53
-2.31
-4.14
-6.10
-8.17
-10.23
-12.18
-13.97
-15.76
-17.89
-20.69
-24.34
-28.78
-33.67
-38.57
-43.00
-46.58
-48.93
-49.65
-48.35
-44.76
-38.92
-31.27
-22.67
-14.09
-6.29
0.38
6.00
10.85
15.19
19.06
22.28
24.61
25.93
26.35
26.17
25.76
25.42
25.32
25.41
25.56
25.56
25.29
24.76
24.14
23.67
23.54
23.79
24.19
24.44
24.22
23.41
22.11
20.55
18.94
17.35
15.71
13.84
11.65
9.19
6.64
4.23
2.14
0.37
-1.21
-2.80
-4.64
-6.82
-9.33
-12.02
-14.69
-17.19
-19.41
-21.39
-23.26
-25.22
-27.48
-30.21
-33.51
-37.40
-41.75
-46.28
-50.51
-53.76
-55.32
-54.60
-51.40
-45.92
-38.78
-30.81
-22.77
-15.21
-8.42
-2.43
2.78
7.25
10.94
13.81
15.86
17.20
18.03
18.56
19.02
19.54
20.13
20.80
21.48
22.15
22.78
23.34
23.75
23.91
23.71
23.09
22.01
20.56
18.89
17.16
15.49
13.88
12.25
10.48
8.47
6.25
4.03
2.08
0.59
-0.36
-0.95
-1.52
-2.41
-3.86
-5.95
-8.58
-11.58
-14.75
-18.00
-21.31
-24.74
-28.41
-32.39
-36.70
-41.23
-45.66
-49.42
-51.84
-52.26
-50.28
-45.92
-39.64
-32.17
-24.31
-16.71
-9.73
-3.46
2.16
7.25
11.87
16.00
19.56
22.46
24.69
26.34
27.62
28.73
29.86
31.05
32.24
33.27
34.05
34.54
34.79
34.90
34.94
34.85
34.52
33.79
32.52
30.69
28.41
25.87
23.28
20.78
18.44
16.22
14.06
11.91
9.69
7.41
5.07
2.73
0.43
-1.79
-3.93
-6.11
-8.47
-11.12
-14.12
-17.34
-20.58
-23.63
-26.39
-28.91
-31.39
-34.12
-37.36
-41.30
-45.92
-50.94
-55.76
-59.57
-61.49
-60.82
-57.31
-51.24
-43.32
-34.49
-25.60
-17.18
-9.46
-2.38
4.17
10.27
15.89
20.89
25.16
28.61
31.23
33.14
34.50
35.47
36.15
36.59
36.80
36.78
36.59
36.32
36.12
36.04
36.05
36.01
35.67
34.82
33.34
31.33
28.99
26.60
24.37
22.38
20.59
18.88
17.11
15.23
13.20
11.07
8.87
6.67
4.50
2.33
0.14
-2.21
-4.85
-7.92
-11.44
-15.26
-19.09
-22.59
-25.52
-27.81
-29.62
-31.24
-33.01
-35.13
-37.74
-40.76
-43.96
-46.92
-49.00
-49.48
-47.74
-43.47
-36.82
-28.43
-19.21
-10.02
-1.52
6.01
12.58
18.30
23.32
27.68
31.30
34.09
35.98
37.02
37.38
37.29
37.02
36.77
36.70
36.83
37.17
37.65
38.15
38.50
38.53
38.05
36.98
35.33
33.21
30.76
28.07
25.15
21.96
18.45
14.68
10.77
6.93
3.31
-0.03
-3.17
-6.25
-9.43
-12.82
-16.42
-20.16
-23.96
-27.78
-31.67
-35.78
-40.25
-45.15
-50.32
-55.42
-60.04
-63.83
-66.74
-68.93
-70.73
-72.52
-74.59
-77.07
-79.94
-82.96
-85.62
-87.09
-86.40
-82.67
-75.51
-65.21
-52.75
-39.47
-26.61
-14.94
-4.68
4.42
12.80
20.80
28.54
35.94
42.77
48.78
53.81
57.86
61.04
63.52
65.46
66.94
67.93
68.41
68.41
68.10
67.68
67.29
66.90
66.30
65.24
63.54
61.18
58.35
55.28
52.22
49.27
46.46
43.75
41.08
38.38
35.64
32.86
30.13
27.52
25.08
22.78
20.47
18.03
15.40
12.65
9.95
7.42
5.08
2.83
0.51
-1.94
-4.47
-6.93
-9.22
-11.39
-13.70
-16.49
-20.08
-24.62
-30.02
-35.89
-41.58
-46.20
-48.81
-48.61
-45.29
-39.22
-31.41
-23.26
-16.09
-10.78
-7.49
-5.79
-4.88
-3.98
-2.57
-0.49
2.08
4.80
7.30
9.38
10.96
12.11
12.89
13.36
13.46
13.12
12.30
11.03
9.34
7.23
4.71
1.82
-1.31
-4.45
-7.31
-9.69
-11.49
-12.88
-14.16
-15.70
-17.71
-20.12
-22.41
-23.78
-23.42
-20.96
-16.74
-11.70
-6.88
-3.01
-0.18
1.96
3.67
4.83
4.82
3.01
-0.81
-6.11
-11.93
-17.29
-21.81
-25.68
-29.51
-33.84
-38.92
-44.60
-50.61
-56.75
-63.05
-69.63
-76.39
-82.73
-87.39
-88.70
-85.15
-76.07
-62.05
-44.89
-27.01
-10.59
3.18
14.26
23.44
31.59
39.07
45.59
50.53
53.42
54.25
53.53
51.93
50.08
48.26
46.50
44.76
43.03
41.29
39.41
37.06
33.92
29.83
25.17
20.74
17.47
15.94
16.06
17.00
17.61
16.82
14.13
9.81
4.69
-0.15
-4.00
-6.81
-9.35
-12.92
-18.76
-27.39
-38.22
-49.71
-59.92
-67.45
-72.00
-74.57
-76.88
-80.57
-86.49
-94.44
-103.46
-112.36
-120.15
-126.19
-129.93
-130.68
-127.48
-119.49
-106.61
-89.84
-71.29
-53.43
-38.10
-25.81
-15.66
-6.14
3.89
14.47
24.61
33.04
39.12
43.48
47.63
53.23
61.06
70.61
80.28
88.22
93.05
94.29
92.31
87.99
82.44
76.90
72.72
71.19
73.14
78.51
86.09
93.83
99.52
101.66
99.94
95.13
88.51
81.06
73.13
64.54
55.10
45.19
35.74
27.94
22.61
19.78
18.62
17.89
16.43
13.59
9.24
3.52
-3.45
-11.61
-20.87
-30.84
-40.75
-49.56
-56.37
-60.70
-62.69
-63.03
-62.66
-62.41
-62.76
-63.67
-64.65
-64.87
-63.44
-59.52
-52.60
-42.56
-29.79
-15.11
0.21
14.70
26.98
36.03
41.47
43.50
42.73
39.90
35.80
30.99
25.85
20.62
15.55
11.02
7.48
5.29
4.61
5.48
7.67
10.71
13.98
16.92
19.25
21.04
22.61
24.31
26.72
30.09
34.10
38.00
40.89
42.29
42.18
41.03
39.41
38.83
40.19
43.45
47.54
51.13
53.50
54.67
55.17
55.43
57.63
63.05
71.31
80.37
87.85
92.48
94.44
94.78
94.51
97.43
105.85
119.34
134.60
147.57
155.91
159.81
161.56
164.35
175.90
202.34
245.41
301.06
361.26
417.40
462.81
494.18
484.02
418.33
302.35
160.75
23.04
-91.72
-178.34
-240.00
-282.26
-310.22
-323.66
-322.77
-310.32
-291.96
-273.74
-259.34
-249.35
-242.49
-237.37
-230.01
-217.99
-201.54
-183.45
-167.04
-154.12
-144.63
-137.43
-131.54
-124.54
-115.02
-103.28
-91.28
-81.58
-75.67
-73.23
-72.36
-70.39
-64.05
-51.80
-34.86
-16.62
-1.52
7.31
9.17
5.51
-1.17
-8.31
-14.47
-19.47
-23.77
-27.62
-30.52
-31.49
-29.67
-24.94
-18.06
-10.38
-3.41
1.81
4.91
6.18
6.34
6.11
5.96
5.96
5.90
5.50
4.66
3.48
2.26
1.33
0.84
0.78
1.00
1.26
1.46
1.67
2.09
2.99
4.55
6.57
8.70
10.57
11.81
12.32
12.19
11.68
11.01
10.36
9.72
9.02
8.18
7.17
6.00
4.69
3.33
1.96
0.58
-0.82
-2.24
-3.73
-5.31
-7.00
-8.78
-10.61
-12.53
-14.57
-16.85
-19.42
-22.26
-25.27
-28.27
-31.11
-33.73
-36.23
-38.82
-41.73
-45.14
-49.09
-53.35
-57.36
-60.26
-61.04
-58.84
-53.29
-44.62
-33.76
-21.97
-10.47
-0.12
8.73
16.16
22.41
27.73
32.20
35.85
38.67
40.72
42.13
43.08
43.69
44.03
44.09
43.82
43.24
42.40
41.43
40.42
39.44
38.51
37.55
36.51
35.30
33.90
32.26
30.41
28.37
26.23
24.13
22.13
20.22
18.32
16.30
14.01
11.43
8.63
5.74
2.86
0.10
-2.51
-4.95
-7.25
-9.48
-11.77
-14.25
-17.01
-20.03
-23.16
-26.21
-29.01
-31.51
-33.83
-36.17
-38.79
-41.87
-45.53
-49.66
-53.89
-57.60
-59.90
-59.93
-57.03
-51.06
-42.50
-32.28
-21.56
-11.40
-2.45
5.08
11.31
16.53
20.99
24.81
27.92
30.22
31.64
32.27
32.31
32.04
31.68
31.33
31.02
30.68
30.30
29.89
29.50
29.15
28.77
28.22
27.38
26.16
24.57
22.76
20.88
19.08
17.44
15.94
14.53
13.11
11.65
10.17
8.69
7.24
5.82
4.38
2.84
1.16
-0.65
-2.53
-4.40
-6.23
-8.09
-10.11
-12.43
-15.15
-18.17
-21.24
-24.06
-26.39
-28.23
-29.78
-31.43
-33.52
-36.31
-39.81
-43.80
-47.79
-51.12
-53.01
-52.73
-49.82
-44.25
-36.50
-27.42
-18.04
-9.23
-1.53
4.93
10.30
14.81
18.63
21.81
24.30
26.06
27.10
27.57
27.70
27.73
27.87
28.23
28.80
29.53
30.32
31.10
31.75
32.17
32.25
31.86
30.94
29.47
27.55
25.34
23.02
20.74
18.57
16.50
14.46
12.41
10.34
8.27
6.25
4.30
2.42
0.59
-1.22
-3.02
-4.77
-6.44
-8.03
-9.54
-11.01
-12.44
-13.88
-15.39
-17.03
-18.89
-21.01
-23.38
-25.92
-28.52
-31.16
-33.91
-36.93
-40.38
-44.31
-48.51
-52.44
-55.35
-56.44
-55.07
-51.01
-44.52
-36.26
-27.18
-18.20
-10.07
-3.18
2.43
6.90
10.50
13.42
15.77
17.59
18.87
19.71
20.24
20.65
21.09
21.65
22.27
22.86
23.31
23.60
23.79
23.98
24.24
24.52
24.65
24.43
23.67
22.32
20.50
18.44
16.39
14.56
12.98
11.54
10.07
8.38
6.34
3.96
1.36
-1.25
-3.62
-5.63
-7.22
-8.50
-9.63
-10.83
-12.31
-14.23
-16.65
-19.53
-22.70
-25.91
-28.96
-31.72
-34.29
-36.88
-39.81
-43.28
-47.28
-51.52
-55.42
-58.22
-59.15
-57.59
-53.24
-46.25
-37.22
-27.09
-16.87
-7.46
0.57
7.09
12.24
16.32
19.62
22.31
24.43
25.97
26.96
27.53
27.87
28.17
28.51
28.85
29.06
29.05
28.83
28.55
28.42
28.53
28.85
29.18
29.23
28.81
27.85
26.48
24.90
23.29
21.77
20.31
18.81
17.17
15.29
13.17
10.85
8.43
6.04
3.80
1.83
0.14
-1.32
-2.69
-4.15
-5.87
-7.97
-10.44
-13.17
-16.00
-18.76
-21.30
-23.64
-25.87
-28.23
-30.99
-34.33
-38.29
-42.66
-46.93
-50.40
-52.38
-52.27
-49.81
-45.16
-38.78
-31.39
-23.72
-16.42
-9.91
-4.37
0.20
3.96
7.08
9.69
11.81
13.44
14.59
15.31
15.70
15.87
15.88
15.74
15.44
15.03
14.63
14.40
14.45
14.80
15.30
15.74
15.95
15.85
15.51
15.05
14.58
14.20
13.96
13.87
13.96
14.15
14.34
14.30
13.83
12.80
11.26
9.39
7.45
5.64
4.03
2.56
1.10
-0.54
-2.49
-4.84
-7.59
-10.69
-14.02
-17.38
-20.64
-23.73
-26.73
-29.90
-33.55
-37.91
-42.97
-48.38
-53.40
-57.03
-58.26
-56.39
-51.27
-43.38
-33.72
-23.51
-13.78
-5.21
2.03
8.09
13.25
17.72
21.58
24.80
27.37
29.32
30.79
31.99
33.05
34.08
35.08
36.03
36.96
37.91
38.95
40.10
41.24
42.11
42.49
42.19
41.18
39.60
37.64
35.44
33.10
30.70
28.29
25.93
23.64
21.37
18.98
16.35
13.45
10.38
7.38
4.64
2.28
0.21
-1.71
-3.72
-5.97
-8.49
-11.19
-13.92
-16.51
-18.80
-20.75
-22.44
-24.05
-25.84
-28.02
-30.74
-33.98
-37.43
-40.61
-42.86
-43.46
-41.88
-37.91
-31.76
-23.99
-15.46
-7.00
0.74
7.45
13.06
17.67
21.38
24.19
26.08
27.01
27.13
26.70
26.13
25.79
25.91
26.54
27.52
28.62
29.61
30.30
30.61
30.50
30.01
29.16
27.96
26.47
24.75
22.90
21.05
19.29
17.62
15.98
14.25
12.31
10.12
7.72
5.19
2.58
-0.10
-2.94
-6.00
-9.29
-12.74
-16.20
-19.53
-22.67
-25.67
-28.68
-31.96
-35.66
-39.84
-44.30
-48.56
-51.88
-53.43
-52.53
-48.88
-42.68
-34.57
-25.44
-16.13
-7.27
0.87
8.23
14.86
20.82
26.02
30.35
33.76
36.25
37.94
39.03
39.63
39.82
39.61
39.00
38.04
36.88
35.69
34.67
33.88
33.27
32.67
31.90
30.81
29.38
27.65
25.68
23.56
21.26
18.73
15.91
12.78
9.45
6.09
2.86
-0.10
-2.75
-5.19
-7.57
-10.06
-12.80
-15.82
-19.02
-22.25
-25.34
-28.20
-30.83
-33.36
-36.02
-39.05
-42.66
-46.89
-51.59
-56.26
-60.15
-62.35
-62.09
-59.00
-53.25
-45.49
-36.72
-27.85
-19.55
-12.12
-5.54
0.32
5.62
10.40
14.62
18.22
21.15
23.44
25.14
26.39
27.33
28.10
28.79
29.45
30.10
30.69
31.16
31.48
31.61
31.52
31.18
30.49
29.40
27.88
25.96
23.75
21.40
19.03
16.72
14.49
12.33
10.24
8.24
6.35
4.56
2.82
1.06
-0.82
-2.85
-4.99
-7.19
-9.38
-11.57
-13.81
-16.18
-18.73
-21.46
-24.24
-26.90
-29.27
-31.30
-33.05
-34.78
-36.78
-39.33
-42.51
-46.11
-49.61
-52.21
-53.07
-51.52
-47.26
-40.55
-32.06
-22.76
-13.54
-5.04
2.44
8.94
14.59
19.51
23.73
27.17
29.80
31.66
32.85
33.54
33.90
34.05
34.10
34.14
34.25
34.51
34.95
35.51
36.06
36.41
36.39
35.85
34.76
33.21
31.35
29.37
27.43
25.61
23.92
22.29
20.69
19.09
17.48
15.86
14.18
12.41
10.53
8.57
6.63
4.78
3.00
1.16
-1.00
-3.69
-6.98
-10.73
-14.64
-18.41
-21.87
-25.06
-28.20
-31.55
-35.34
-39.63
-44.35
-49.22
-53.75
-57.31
-59.21
-58.81
-55.78
-50.25
-42.82
-34.35
-25.77
-17.73
-10.56
-4.24
1.42
6.60
11.37
15.64
19.27
22.15
24.25
25.68
26.64
27.36
28.03
28.77
29.60
30.50
31.39
32.18
32.74
32.92
32.60
31.72
30.32
28.57
26.65
24.77
23.07
21.59
20.28
19.03
17.70
16.17
14.38
12.33
10.10
7.76
5.38
2.98
0.50
-2.13
-4.92
-7.82
-10.71
-13.44
-15.93
-18.23
-20.49
-22.87
-25.46
-28.24
-31.09
-33.86
-36.44
-38.86
-41.26
-43.84
-46.84
-50.37
-54.29
-58.21
-61.39
-63.00
-62.29
-58.91
-53.00
-45.17
-36.30
-27.25
-18.65
-10.83
-3.87
2.28
7.70
12.48
16.66
20.26
23.33
25.89
27.97
29.60
30.78
31.54
31.90
31.91
31.61
31.10
30.43
29.65
28.72
27.61
26.26
24.70
23.03
21.40
19.96
18.80
17.90
17.16
16.45
15.64
14.68
13.54
12.24
10.78
9.16
7.38
5.44
3.34
1.08
-1.28
-3.72
-6.24
-8.78
-11.32
-13.81
-16.26
-18.66
-21.04
-23.39
-25.70
-27.92
-30.02
-32.04
-34.08
-36.38
-39.17
-42.65
-46.81
-51.41
-55.92
-59.54
-61.46
-60.97
-57.79
-52.11
-44.57
-36.03
-27.32
-19.05
-11.54
-4.86
1.06
6.31
10.93
14.94
18.35
21.21
23.60
25.62
27.35
28.88
30.22
31.35
32.26
32.96
33.49
33.92
34.30
34.60
34.78
34.75
34.47
33.93
33.12
32.09
30.82
29.35
27.68
25.83
23.83
21.67
19.40
17.04
14.65
12.33
10.14
8.11
6.20
4.30
2.33
0.29
-1.81
-3.89
-5.96
-8.13
-10.55
-13.29
-16.29
-19.33
-22.16
-24.60
-26.68
-28.67
-30.93
-33.80
-37.47
-41.88
-46.79
-51.71
-55.97
-58.79
-59.43
-57.36
-52.49
-45.23
-36.36
-26.87
-17.61
-9.15
-1.70
4.77
10.35
15.07
18.86
21.68
23.53
24.62
25.26
25.78
26.45
27.34
28.42
29.63
30.95
32.37
33.91
35.53
37.05
38.19
38.71
38.46
37.46
35.88
33.95
31.93
29.99
28.12
26.23
24.18
21.84
19.20
16.36
13.49
10.74
8.19
5.82
3.56
1.34
-0.82
-2.88
-4.75
-6.38
-7.85
-9.30
-10.93
-12.93
-15.41
-18.37
-21.69
-25.21
-28.71
-32.05
-35.17
-38.19
-41.37
-45.00
-49.34
-54.38
-59.84
-65.01
-68.95
-70.67
-69.43
-64.98
-57.64
-48.22
-37.74
-27.16
-17.21
-8.30
-0.57
6.01
11.55
16.18
20.03
23.18
25.68
27.60
29.03
30.11
31.04
32.00
33.07
34.26
35.50
36.72
37.87
38.96
39.99
40.88
41.49
41.65
41.26
40.31
38.90
37.23
35.49
33.84
32.33
30.90
29.41
27.69
25.66
23.33
20.86
18.42
16.10
13.86
11.55
8.99
6.12
3.02
-0.04
-2.88
-5.44
-7.86
-10.43
-13.42
-16.90
-20.75
-24.70
-28.54
-32.15
-35.55
-38.84
-42.17
-45.70
-49.58
-53.96
-58.90
-64.17
-69.24
-73.19
-75.01
-73.83
-69.33
-61.79
-52.11
-41.42
-30.83
-21.09
-12.53
-5.16
1.22
6.80
11.69
15.94
19.54
22.52
24.95
26.93
28.56
29.96
31.22
32.40
33.55
34.69
35.84
37.00
38.11
39.06
39.67
39.76
39.20
37.98
36.24
34.18
32.07
30.10
28.38
26.93
25.66
24.48
23.29
22.04
20.68
19.21
17.61
15.88
13.98
11.90
9.65
7.28
4.88
2.50
0.16
-2.20
-4.69
-7.43
-10.50
-13.83
-17.27
-20.60
-23.58
-26.10
-28.20
-30.11
-32.18
-34.79
-38.16
-42.25
-46.58
-50.34
-52.56
-52.37
-49.34
-43.53
-35.55
-26.28
-16.65
-7.37
1.18
8.81
15.54
21.43
26.51
30.83
34.44
37.42
39.86
41.78
43.20
44.10
44.49
44.40
43.89
43.03
41.87
40.48
38.93
37.26
35.54
33.76
31.92
29.95
27.81
25.46
22.89
20.17
17.37
14.57
11.87
9.31
6.88
4.53
2.10
-0.49
-3.29
-6.21
-9.03
-11.48
-13.38
-14.72
-15.65
-16.46
-17.46
-18.78
-20.38
-22.10
-23.75
-25.19
-26.46
-27.69
-29.05
-30.72
-32.81
-35.40
-38.47
-41.86
-45.15
-47.67
-48.55
-47.08
-42.92
-36.26
-27.80
-18.46
-9.16
-0.54
7.10
13.71
19.42
24.34
28.54
32.02
34.76
36.72
37.90
38.36
38.25
37.75
37.10
36.49
36.05
35.82
35.79
35.91
36.09
36.21
36.12
35.73
34.95
33.81
32.39
30.79
29.07
27.24
25.22
22.99
20.54
17.92
15.22
12.50
9.80
7.08
4.30
1.43
-1.51
-4.47
-7.40
-10.27
-13.08
-15.85
-18.57
-21.21
-23.69
-25.98
-28.09
-30.06
-31.97
-33.88
-35.86
-37.94
-40.18
-42.69
-45.62
-49.08
-53.02
-57.15
-60.84
-63.32
-63.77
-61.62
-56.75
-49.55
-40.73
-31.19
-21.76
-12.99
-5.16
1.69
7.62
12.70
16.93
20.30
22.81
24.48
25.46
25.93
26.14
26.34
26.70
27.30
28.15
29.12
30.09
30.93
31.55
31.86
31.81
31.34
30.38
28.93
27.04
24.84
22.53
20.28
18.22
16.36
14.66
12.99
11.25
9.38
7.39
5.39
3.48
1.76
0.26
-1.08
-2.37
-3.70
-5.16
-6.80
-8.64
-10.65
-12.80
-14.97
-17.06
-18.94
-20.60
-22.12
-23.68
-25.52
-27.90
-30.99
-34.77
-38.98
-43.07
-46.24
-47.63
-46.59
-42.90
-36.83
-29.10
-20.60
-12.14
-4.25
2.80
9.01
14.42
19.09
23.04
26.27
28.79
30.61
31.85
32.64
33.19
33.71
34.34
35.12
35.99
36.83
37.58
38.16
38.57
38.78
38.67
38.10
36.95
35.18
32.87
30.19
27.31
24.40
21.54
18.76
16.06
13.44
10.87
8.31
5.76
3.26
0.84
-1.43
-3.52
-5.50
-7.48
-9.61
-12.01
-14.74
-17.76
-20.99
-24.32
-27.62
-30.80
-33.89
-36.96
-40.21
-43.83
-47.97
-52.61
-57.39
-61.67
-64.57
-65.20
-62.95
-57.73
-50.00
-40.69
-30.93
-21.69
-13.56
-6.70
-0.90
4.14
8.63
12.62
15.99
18.62
20.52
21.77
22.59
23.12
23.44
23.55
23.41
23.05
22.57
22.12
21.79
21.55
21.29
20.83
20.08
19.05
17.83
16.59
15.41
14.34
13.34
12.36
11.37
10.36
9.33
8.28
7.16
5.92
4.53
2.98
1.26
-0.61
-2.60
-4.64
-6.61
-8.42
-10.06
-11.63
-13.34
-15.42
-17.96
-20.91
-24.06
-27.16
-30.09
-32.87
-35.61
-38.49
-41.62
-45.11
-49.00
-53.20
-57.45
-61.23
-63.76
-64.20
-61.99
-57.04
-49.83
-41.26
-32.32
-23.77
-16.03
-9.15
-3.03
2.41
7.14
11.08
14.20
16.59
18.45
20.00
21.39
22.68
23.80
24.72
25.40
25.93
26.38
26.88
27.48
28.19
28.94
29.59
29.97
29.87
29.22
28.08
26.61
25.01
23.48
22.07
20.75
19.42
18.03
16.58
15.11
13.66
12.23
10.75
9.14
7.39
5.54
3.69
1.94
0.27
-1.41
-3.32
-5.61
-8.37
-11.49
-14.74
-17.89
-20.82
-23.56
-26.26
-29.15
-32.46
-36.29
-40.62
-45.27
-49.83
-53.67
-55.98
-55.95
-52.98
-46.96
-38.29
-27.88
-16.86
-6.28
3.17
11.17
17.75
23.14
27.56
31.18
34.08
36.30
37.92
39.05
39.82
40.36
40.75
41.00
41.13
41.15
41.07
40.93
40.77
40.57
40.22
39.58
38.47
36.78
34.52
31.82
28.93
26.10
23.57
21.42
19.60
17.94
16.23
14.28
11.99
9.37
6.54
3.68
0.96
-1.59
-4.08
-6.72
-9.79
-13.45
-17.61
-22.02
-26.31
-30.19
-33.56
-36.57
-39.48
-42.58
-46.06
-50.03
-54.46
-59.24
-64.05
-68.32
-71.25
-71.98
-69.83
-64.58
-56.64
-46.89
-36.45
-26.31
-17.13
-9.12
-2.14
4.06
9.69
14.84
19.43
23.36
26.54
28.95
30.68
31.88
32.70
33.31
33.84
34.41
35.10
35.94
36.88
37.83
38.65
39.20
39.35
39.00
38.15
36.81
35.06
33.02
30.79
28.47
26.07
23.60
21.06
18.49
15.97
13.56
11.30
9.14
7.03
4.90
2.75
0.58
-1.56
-3.67
-5.75
-7.82
-9.95
-12.22
-14.74
-17.60
-20.82
-24.27
-27.77
-31.11
-34.23
-37.26
-40.56
-44.49
-49.32
-54.94
-60.86
-66.19
-69.91
-71.10
-69.16
-64.04
-56.19
-46.47
-35.90
-25.47
-15.86
-7.42
-0.17
6.05
11.46
16.17
20.25
23.66
26.38
28.48
30.08
31.34
32.41
33.41
34.39
35.37
36.34
37.27
38.11
38.79
39.19
39.21
38.76
37.82
36.43
34.75
32.92
31.07
29.25
27.43
25.53
23.51
21.35
19.10
16.83
14.63
12.55
10.65
8.95
7.45
6.11
4.82
3.43
1.83
-0.06
-2.21
-4.59
-7.09
-9.64
-12.22
-14.81
-17.38
-19.94
-22.53
-25.22
-28.21
-31.70
-35.82
-40.43
-45.08
-48.94
-51.02
-50.45
-46.82
-40.25
-31.46
-21.47
-11.28
-1.67
6.98
14.55
21.09
26.65
31.19
34.66
37.04
38.48
39.26
39.70
40.04
40.38
40.69
40.90
40.99
40.99
41.01
41.13
41.31
41.41
41.24
40.57
39.27
37.33
34.77
31.72
28.30
24.67
20.98
17.40
14.06
11.07
8.47
6.19
4.09
1.96
-0.37
-2.94
-5.67
-8.33
-10.76
-12.87
-14.83
-16.92
-19.48
-22.66
-26.38
-30.33
-34.14
-37.46
-40.15
-42.27
-44.05
-45.80
-47.85
-50.48
-53.80
-57.70
-61.66
-64.85
-66.31
-65.21
-61.21
-54.53
-45.90
-36.33
-26.79
-17.94
-10.11
-3.29
2.68
8.03
12.93
17.45
21.57
25.24
28.39
30.96
32.98
34.51
35.67
36.54
37.16
37.58
37.82
37.89
37.83
37.64
37.26
36.58
35.54
34.13
32.45
30.60
28.74
26.92
25.14
23.34
21.47
19.53
17.59
15.76
14.14
12.76
11.54
10.35
9.02
7.40
5.40
3.05
0.50
-2.05
-4.43
-6.55
-8.45
-10.32
-12.37
-14.78
-17.62
-20.81
-24.16
-27.48
-30.62
-33.59
-36.48
-39.49
-42.83
-46.65
-50.99
-55.65
-60.12
-63.65
-65.35
-64.46
-60.63
-54.06
-45.47
-35.88
-26.29
-17.46
-9.75
-3.20
2.34
7.07
11.13
14.57
17.42
19.68
21.46
22.88
24.08
25.18
26.20
27.11
27.87
28.44
28.87
29.25
29.64
30.00
30.25
30.22
29.76
28.83
27.50
25.92
24.22
22.52
20.84
19.14
17.36
15.46
13.44
11.39
9.41
7.56
5.89
4.39
3.04
1.78
0.57
-0.61
-1.76
-2.88
-3.95
-5.02
-6.19
-7.61
-9.45
-11.77
-14.54
-17.58
-20.63
-23.45
-25.95
-28.20
-30.40
-32.83
-35.74
-39.22
-43.20
-47.34
-51.03
-53.53
-54.10
-52.19
-47.68
-40.83
-32.33
-23.02
-13.74
-5.14
2.35
8.62
13.70
17.73
20.88
23.31
25.15
26.51
27.56
28.49
29.49
30.67
31.99
33.32
34.44
35.21
35.60
35.70
35.61
35.39
34.99
34.30
33.25
31.82
30.16
28.37
26.59
24.84
23.07
21.23
19.29
17.27
15.25
13.34
11.59
10.01
8.56
7.18
5.77
4.20
2.39
0.30
-1.99
-4.35
-6.62
-8.74
-10.82
-13.05
-15.65
-18.71
-22.13
-25.63
-28.89
-31.72
-34.12
-36.30
-38.57
-41.26
-44.56
-48.50
-52.86
-57.14
-60.62
-62.43
-61.79
-58.24
-51.84
-43.21
-33.34
-23.34
-14.13
-6.27
0.09
5.10
9.05
12.27
15.00
17.42
19.65
21.77
23.84
25.87
27.81
29.60
31.14
32.39
33.34
34.07
34.61
35.00
35.22
35.21
34.90
34.26
33.25
31.91
30.24
28.32
26.23
24.13
22.16
20.40
18.87
17.45
15.99
14.40
12.72
11.08
9.62
8.41
7.33
6.09
4.39
2.10
-0.69
-3.69
-6.59
-9.23
-11.72
-14.31
-17.28
-20.75
-24.57
-28.43
-31.96
-34.95
-37.36
-39.37
-41.24
-43.25
-45.68
-48.68
-52.29
-56.28
-60.11
-62.93
-63.75
-61.77
-56.69
-48.84
-39.06
-28.53
-18.27
-9.03
-1.13
5.45
10.85
15.26
18.83
21.67
23.85
25.50
26.75
27.78
28.75
29.73
30.70
31.50
31.98
32.03
31.70
31.18
30.69
30.43
30.40
30.49
30.49
30.25
29.65
28.75
27.62
26.38
25.06
23.67
22.16
20.47
18.58
16.49
14.28
12.02
9.82
7.71
5.67
3.58
1.31
-1.22
-3.99
-6.84
-9.57
-12.02
-14.14
-16.07
-18.02
-20.23
-22.76
-25.55
-28.42
-31.12
-33.55
-35.73
-37.86
-40.20
-43.01
-46.50
-50.74
-55.59
-60.69
-65.38
-68.80
-70.03
-68.38
-63.58
-55.98
-46.38
-35.94
-25.74
-16.58
-8.79
-2.31
3.14
7.90
12.12
15.84
19.00
21.55
23.56
25.20
26.70
28.19
29.72
31.21
32.55
33.68
34.64
35.50
36.31
37.05
37.59
37.76
37.43
36.58
35.31
33.82
32.27
30.76
29.29
27.73
25.95
23.86
21.49
19.01
16.63
14.53
12.76
11.22
9.70
8.06
6.25
4.39
2.63
1.05
-0.39
-1.90
-3.74
-6.12
-9.11
-12.61
-16.43
-20.32
-24.06
-27.54
-30.75
-33.84
-37.05
-40.63
-44.80
-49.46
-54.20
-58.24
-60.64
-60.47
-57.22
-50.89
-42.05
-31.69
-20.87
-10.50
-1.15
6.94
13.74
19.28
23.62
26.85
29.11
30.65
31.78
32.80
33.89
35.11
36.41
37.71
38.94
40.07
41.09
42.00
42.76
43.31
43.57
43.46
42.96
42.06
40.77
39.14
37.20
35.00
32.56
29.92
27.17
24.42
21.80
19.40
17.22
15.20
13.23
11.22
9.09
6.80
4.33
1.71
-1.03
-3.86
-6.74
-9.73
-12.93
-16.45
-20.37
-24.61
-28.96
-33.15
-36.99
-40.50
-43.88
-47.50
-51.67
-56.59
-62.14
-67.85
-72.94
-76.41
-77.30
-74.95
-69.24
-60.63
-50.06
-38.65
-27.44
-17.09
-7.93
0.04
6.97
13.03
18.39
23.15
27.39
31.14
34.40
37.14
39.38
41.14
42.53
43.64
44.56
45.37
46.10
46.77
47.30
47.60
47.54
46.97
45.84
44.17
42.09
39.76
37.36
34.98
32.70
30.51
28.37
26.22
24.03
21.83
19.63
17.49
15.43
13.43
11.40
9.23
6.86
4.30
1.61
-1.11
-3.80
-6.52
-9.34
-12.38
-15.67
-19.22
-22.91
-26.63
-30.27
-33.79
-37.25
-40.78
-44.57
-48.77
-53.49
-58.72
-64.14
-69.16
-72.89
-74.34
-72.72
-67.77
-59.84
-49.85
-38.96
-28.21
-18.24
-9.30
-1.30
5.85
12.22
17.70
22.21
25.67
28.15
29.79
30.83
31.48
31.93
32.27
32.57
32.77
32.89
32.95
33.05
33.29
33.68
34.08
34.27
34.03
33.29
32.15
30.85
29.60
28.49
27.43
26.26
24.84
23.12
21.17
19.14
17.20
15.45
13.91
12.52
11.10
9.47
7.51
5.20
2.68
0.14
-2.26
-4.49
-6.68
-9.05
-11.73
-14.77
-18.02
-21.31
-24.43
-27.31
-29.99
-32.62
-35.44
-38.69
-42.59
-47.21
-52.35
-57.42
-61.53
-63.57
-62.61
-58.18
-50.47
-40.34
-29.04
-17.84
-7.62
1.21
8.74
15.25
20.96
25.95
30.14
33.40
35.76
37.38
38.51
39.39
40.15
40.84
41.42
41.94
42.47
43.09
43.81
44.47
44.81
44.51
43.35
41.33
38.63
35.58
32.52
29.68
27.14
24.92
22.90
20.99
19.10
17.11
14.93
12.51
9.90
7.19
4.52
2.01
-0.28
-2.40
-4.45
-6.55
-8.83
-11.39
-14.28
-17.44
-20.77
-24.08
-27.21
-30.08
-32.75
-35.38
-38.24
-41.58
-45.58
-50.23
-55.28
-60.27
-64.42
-66.84
-66.72
-63.58
-57.46
-48.97
-39.11
-28.97
-19.44
-11.05
-3.94
2.01
7.04
11.38
15.19
18.59
21.65
24.40
26.85
28.99
30.77
32.17
33.15
33.73
33.93
33.85
33.58
33.22
32.82
32.38
31.86
31.15
30.22
29.05
27.70
26.26
24.78
23.27
21.71
20.08
18.40
16.74
15.19
13.76
12.36
10.81
8.93
6.63
3.99
1.19
-1.56
-4.10
-6.41
-8.58
-10.77
-13.13
-15.76
-18.70
-21.88
-25.17
-28.41
-31.44
-34.22
-36.80
-39.39
-42.27
-45.72
-49.88
-54.58
-59.28
-63.10
-65.06
-64.36
-60.66
-54.23
-45.83
-36.44
-26.99
-18.11
-10.10
-3.01
3.25
8.74
13.51
17.56
20.95
23.68
25.83
27.46
28.68
29.57
30.24
30.78
31.21
31.57
31.87
32.11
32.30
32.39
32.28
31.82
30.90
29.49
27.68
25.61
23.45
21.29
19.16
17.02
14.82
12.58
10.41
8.41
6.69
5.20
3.83
2.39
0.75
-1.16
-3.24
-5.36
-7.41
-9.36
-11.26
-13.26
-15.45
-17.86
-20.45
-23.13
-25.78
-28.31
-30.65
-32.80
-34.82
-36.85
-39.14
-41.97
-45.50
-49.59
-53.74
-57.03
-58.41
-56.97
-52.37
-44.86
-35.32
-24.87
-14.64
-5.43
2.32
8.57
13.50
17.40
20.55
23.16
25.33
27.14
28.60
29.83
30.95
32.12
33.41
34.77
36.10
37.31
38.40
39.41
40.38
41.27
41.90
42.02
41.48
40.27
38.53
36.47
34.31
32.16
30.04
27.92
25.76
23.53
21.20
18.76
16.21
13.62
11.06
8.64
6.37
4.14
1.78
-0.95
-4.20
-7.98
-12.18
-16.58
-20.99
-25.24
-29.25
-33.03
-36.73
-40.58
-44.86
-49.80
-55.33
-61.07
-66.23
-69.81
-70.87
-68.91
-63.91
-56.46
-47.51
-38.06
-28.94
-20.60
-13.19
-6.60
-0.72
4.53
9.14
13.05
16.28
18.86
20.94
22.64
24.06
25.24
26.18
26.88
27.40
27.83
28.25
28.74
29.26
29.70
29.92
29.80
29.33
28.55
27.58
26.48
25.28
23.96
22.48
20.82
19.01
17.10
15.13
13.08
10.98
8.85
6.75
4.77
2.96
1.25
-0.52
-2.57
-5.14
-8.33
-12.11
-16.29
-20.61
-24.78
-28.61
-32.02
-35.13
-38.22
-41.65
-45.80
-50.86
-56.67
-62.67
-67.93
-71.34
-71.96
-69.24
-63.29
-54.76
-44.70
-34.18
-24.07
-14.84
-6.64
0.62
7.06
12.77
17.80
22.11
25.69
28.57
30.79
32.50
33.79
34.79
35.59
36.24
36.78
37.23
37.61
37.93
38.12
38.12
37.79
37.06
35.93
34.48
32.85
31.22
29.69
28.23
26.78
25.20
23.42
21.42
19.27
17.09
14.95
12.88
10.82
8.67
6.34
3.82
1.16
-1.55
-4.26
-7.00
-9.86
-12.91
-16.16
-19.53
-22.85
-25.95
-28.75
-31.24
-33.52
-35.78
-38.24
-41.16
-44.74
-49.01
-53.74
-58.27
-61.65
-62.80
-60.86
-55.56
-47.28
-37.00
-25.94
-15.22
-5.54
2.86
10.05
16.23
21.54
26.02
29.67
32.48
34.57
36.10
37.25
38.16
38.89
39.48
40.03
40.61
41.29
42.10
42.96
43.72
44.20
44.27
43.86
42.98
41.63
39.87
37.74
35.38
32.94
30.58
28.38
26.30
24.22
22.00
19.59
17.05
14.49
12.00
9.60
7.19
4.64
1.86
-1.18
-4.48
-8.00
-11.72
-15.56
-19.45
-23.23
-26.80
-30.15
-33.39
-36.78
-40.61
-45.10
-50.31
-56.02
-61.70
-66.50
-69.41
-69.53
-66.29
-59.75
-50.63
-40.07
-29.32
-19.33
-10.55
-2.99
3.60
9.46
14.67
19.21
22.99
26.01
28.41
30.36
31.99
33.40
34.60
35.59
36.40
37.08
37.70
38.27
38.72
38.95
38.84
38.33
37.36
35.94
34.09
31.89
29.49
27.06
24.75
22.66
20.78
19.08
17.47
15.89
14.26
12.50
10.54
8.32
5.86
3.25
0.66
-1.79
-4.05
-6.25
-8.59
-11.27
-14.42
-17.98
-21.76
-25.49
-28.92
-31.93
-34.58
-37.10
-39.79
-43.00
-46.94
-51.64
-56.83
-61.88
-65.86
-67.76
-66.77
-62.53
-55.31
-45.92
-35.49
-25.11
-15.56
-7.18
0.02
6.24
11.66
16.41
20.49
23.91
26.65
28.82
30.52
31.87
32.98
33.88
34.62
35.20
35.65
35.98
36.20
36.28
36.16
35.79
35.11
34.13
32.92
31.58
30.18
28.73
27.20
25.49
23.51
21.24
18.72
16.14
13.73
11.70
10.11
8.88
7.73
6.40
4.70
2.61
0.25
-2.20
-4.63
-7.04
-9.51
-12.16
-15.02
-18.07
-21.25
-24.50
-27.81
-31.17
-34.56
-37.95
-41.25
-44.46
-47.66
-51.08
-54.94
-59.33
-63.96
-68.15
-70.89
-71.14
-68.18
-61.88
-52.78
-41.91
-30.48
-19.54
-9.73
-1.31
5.76
11.67
16.58
20.64
23.92
26.56
28.65
30.34
31.74
32.93
33.95
34.80
35.49
36.04
36.51
36.96
37.45
37.94
38.33
38.46
38.16
37.36
36.08
34.45
32.60
30.65
28.64
26.53
24.28
21.90
19.48
17.10
14.87
12.84
11.00
9.30
7.66
6.02
4.36
2.65
0.90
-0.93
-2.87
-5.05
-7.48
-10.18
-13.09
-16.06
-18.97
-21.72
-24.35
-26.99
-29.88
-33.24
-37.26
-41.95
-47.11
-52.22
-56.53
-59.17
-59.40
-56.79
-51.41
-43.84
-34.92
-25.58
-16.60
-8.45
-1.36
4.68
9.72
13.88
17.20
19.78
21.75
23.23
24.36
25.28
26.10
26.92
27.80
28.78
29.84
30.91
31.85
32.55
32.92
32.93
32.58
31.90
30.95
29.79
28.47
27.08
25.62
24.11
22.45
20.56
18.38
15.95
13.38
10.87
8.56
6.58
4.88
3.35
1.78
-0.01
-2.13
-4.53
-7.09
-9.65
-12.09
-14.41
-16.69
-19.06
-21.63
-24.42
-27.40
-30.45
-33.49
-36.48
-39.49
-42.66
-46.18
-50.24
-54.87
-59.83
-64.50
-68.00
-69.36
-67.80
-63.01
-55.27
-45.38
-34.42
-23.46
-13.34
-4.49
2.98
9.23
14.48
18.95
22.76
25.95
28.52
30.48
31.86
32.78
33.34
33.67
33.82
33.84
33.78
33.73
33.72
33.83
34.01
34.13
33.99
33.44
32.39
30.91
29.16
27.35
25.62
23.98
22.34
20.59
18.63
16.46
14.16
11.86
9.69
7.73
6.02
4.51
3.08
1.58
-0.14
-2.13
-4.33
-6.61
-8.82
-10.87
-12.83
-14.82
-17.02
-19.56
-22.47
-25.64
-28.93
-32.13
-35.08
-37.71
-40.11
-42.53
-45.29
-48.67
-52.74
-57.16
-61.19
-63.82
-64.02
-61.16
-55.16
-46.59
-36.47
-25.94
-15.98
-7.17
0.29
6.48
11.56
15.73
19.11
21.80
23.91
25.53
26.71
27.48
27.88
27.94
27.75
27.43
27.10
26.86
26.76
26.77
26.81
26.76
26.49
25.91
24.97
23.72
22.29
20.89
19.69
18.80
18.19
17.68
17.04
16.10
14.85
13.46
12.13
11.03
10.11
9.17
7.92
6.16
3.89
1.33
-1.23
-3.54
-5.56
-7.39
-9.26
-11.32
-13.66
-16.23
-18.93
-21.68
-24.44
-27.21
-30.07
-33.14
-36.57
-40.48
-44.93
-49.77
-54.52
-58.41
-60.50
-59.97
-56.39
-49.86
-41.02
-30.78
-20.05
-9.58
0.17
8.98
16.73
23.43
29.13
34.02
38.32
42.28
46.07
49.72
53.19
56.36
59.16
61.57
63.67
65.66
67.79
70.34
73.45
77.11
81.03
84.79
87.97
90.34
92.00
93.40
95.26
98.30
103.09
109.69
117.63
125.94
133.36
138.64
140.72
138.81
132.46
121.57
106.54
88.37
68.37
47.85
27.65
7.91
-11.61
-30.99
-49.68
-66.51
-80.13
-89.84
-95.92
-99.55
-102.13
-104.72
-107.76
-111.39
-115.83
-121.55
-128.87
-137.36
-145.56
-151.23
-152.28
-147.69
-138.08
-125.31
-111.62
-98.69
-87.12
-76.55
-66.31
-55.95
-45.50
-35.44
-26.37
-18.78
-13.02
-9.22
-7.34
-7.07
-7.83
-8.79
-9.23
-8.70
-7.25
-5.22
-3.12
-1.28
0.24
1.56
2.89
4.36
5.96
7.57
8.99
10.09
10.88
11.52
12.26
13.31
14.70
16.28
17.87
19.40
21.05
23.16
25.92
29.15
32.23
34.30
34.79
33.67
31.51
29.20
27.55
26.86
26.85
26.90
26.33
24.72
22.01
18.41
14.29
9.98
5.65
1.37
-2.93
-7.39
-12.11
-17.09
-22.09
-26.60
-29.93
-31.30
-30.18
-26.42
-20.46
-13.29
-6.29
-0.83
2.02
1.88
-0.89
-5.38
-10.50
-15.34
-19.50
-23.05
-26.30
-29.37
-31.97
-33.48
-33.30
-31.20
-27.59
-23.33
-19.39
-16.32
-14.03
-11.96
-9.34
-5.67
-0.84
4.80
10.73
16.53
21.89
26.67
30.68
33.65
35.20
34.98
32.79
28.79
23.41
17.35
11.30
5.77
0.96
-3.29
-7.29
-11.36
-15.62
-19.99
-24.23
-28.12
-31.59
-34.79
-38.07
-41.83
-46.39
-51.84
-57.95
-64.11
-69.38
-72.65
-72.89
-69.46
-62.39
-52.39
-40.68
-28.62
-17.31
-7.38
1.06
8.30
14.70
20.51
25.78
30.42
34.25
37.24
39.46
41.08
42.32
43.28
44.00
44.47
44.69
44.72
44.64
44.52
44.35
44.03
43.44
42.41
40.92
38.99
36.77
34.41
32.06
29.80
27.63
25.52
23.46
21.45
19.52
17.70
15.95
14.16
12.15
9.80
7.10
4.22
1.41
-1.14
-3.29
-5.17
-7.02
-9.11
-11.69
-14.82
-18.39
-22.18
-25.91
-29.38
-32.52
-35.48
-38.52
-42.04
-46.33
-51.51
-57.29
-62.91
-67.28
-69.19
-67.71
-62.50
-53.92
-42.99
-31.10
-19.51
-9.18
-0.46
6.72
12.73
17.95
22.60
26.78
30.44
33.53
36.08
38.14
39.79
41.03
41.84
42.20
42.17
41.89
41.53
41.21
40.92
40.55
39.90
38.85
37.31
35.34
33.10
30.79
28.63
26.82
25.49
24.68
24.34
24.35
24.52
24.70
24.72
24.46
23.82
22.72
21.15
19.13
16.73
14.04
11.18
8.20
5.11
1.89
-1.54
-5.23
-9.21
-13.45
-17.84
-22.22
-26.46
-30.52
-34.51
-38.63
-43.14
-48.21
-53.81
-59.60
-64.90
-68.80
-70.33
-68.74
-63.74
-55.65
-45.25
-33.68
-22.01
-11.11
-1.42
6.88
13.82
19.53
24.09
27.59
30.16
32.00
33.32
34.29
35.02
35.49
35.69
35.57
35.16
34.56
33.88
33.18
32.49
31.73
30.81
29.58
27.95
25.84
23.26
20.31
17.22
14.31
11.91
10.20
9.17
8.56
8.00
7.15
5.80
4.01
1.99
-0.04
-1.97
-3.88
-5.97
-8.48
-11.53
-15.06
-18.89
-22.76
-26.45
-29.85
-32.94
-35.79
-38.56
-41.39
-44.46
-47.90
-51.72
-55.62
-58.99
-60.93
-60.52
-57.13
-50.68
-41.75
-31.41
-20.85
-11.06
-2.55
4.59
10.57
15.66
20.00
23.65
26.60
28.89
30.63
32.01
33.16
34.18
35.04
35.72
36.22
36.63
37.03
37.46
37.87
38.11
37.98
37.33
36.14
34.47
32.46
30.23
27.87
25.46
23.02
20.61
18.31
16.19
14.31
12.64
11.08
9.49
7.69
5.61
3.27
0.80
-1.68
-4.05
-6.28
-8.45
-10.65
-12.99
-15.52
-18.25
-21.10
-23.96
-26.70
-29.27
-31.60
-33.79
-35.96
-38.30
-41.02
-44.28
-48.17
-52.50
-56.82
-60.34
-62.09
-61.21
-57.22
-50.29
-41.17
-31.00
-20.92
-11.74
-3.84
2.79
8.41
13.22
17.36
20.81
23.56
25.57
26.93
27.77
28.31
28.70
29.05
29.42
29.78
30.10
30.38
30.63
30.84
30.96
30.88
30.44
29.57
28.27
26.68
25.00
23.41
22.00
20.72
19.41
17.94
16.26
14.44
12.65
11.04
9.69
8.58
7.59
6.60
5.49
4.24
2.83
1.31
-0.24
-1.77
-3.26
-4.71
-6.16
-7.75
-9.59
-11.80
-14.39
-17.27
-20.25
-23.14
-25.83
-28.35
-30.87
-33.65
-36.95
-40.84
-45.18
-49.50
-53.08
-55.13
-54.90
-51.96
-46.35
-38.59
-29.54
-20.23
-11.53
-4.01
2.16
7.10
11.07
14.32
16.98
19.09
20.67
21.77
22.53
23.14
23.81
24.66
25.73
27.00
28.31
29.55
30.59
31.39
31.97
32.40
32.72
32.92
32.83
32.28
31.09
29.21
26.74
23.92
21.02
18.27
15.76
13.48
11.31
9.11
6.76
4.17
1.39
-1.45
-4.15
-6.55
-8.57
-10.30
-11.95
-13.79
-15.99
-18.60
-21.50
-24.51
-27.45
-30.24
-32.94
-35.76
-38.98
-42.83
-47.40
-52.46
-57.44
-61.47
-63.61
-63.09
-59.55
-53.18
-44.67
-35.00
-25.12
-15.75
-7.23
0.36
7.13
13.12
18.34
22.74
26.26
28.92
30.86
32.29
33.37
34.18
34.75
35.11
35.30
35.45
35.69
36.10
36.65
37.19
37.53
37.48
36.97
36.05
34.87
33.61
32.39
31.24
30.11
28.88
27.44
25.78
23.92
21.96
19.98
18.02
16.05
13.98
11.77
9.37
6.83
4.23
1.67
-0.82
-3.21
-5.56
-7.97
-10.50
-13.21
-16.09
-19.09
-22.15
-25.20
-28.24
-31.33
-34.59
-38.17
-42.27
-47.01
-52.36
-57.98
-63.18
-67.04
-68.59
-67.14
-62.51
-55.17
-46.02
-36.11
-26.38
-17.37
-9.29
-2.05
4.50
10.49
15.96
20.88
25.15
28.75
31.64
33.90
35.64
36.99
38.08
38.98
39.73
40.28
40.63
40.79
40.78
40.64
40.32
39.72
38.68
37.11
35.06
32.74
30.40
28.30
26.48
24.87
23.25
21.44
19.36
17.00
14.47
11.79
8.94
5.86
2.51
-1.04
-4.67
-8.19
-11.47
-14.50
-17.36
-20.18
-23.08
-26.07
-29.12
-32.10
-34.88
-37.32
-39.32
-40.78
-41.66
-42.03
-42.07
-42.12
-42.57
-43.72
-45.65
-48.09
-50.41
-51.82
-51.53
-49.06
-44.29
-37.53
-29.37
-20.49
-11.52
-2.96
4.88
11.83
17.83
22.87
27.01
30.27
32.72
34.41
35.52
36.27
36.94
37.78
38.92
40.35
41.91
43.43
44.76
45.81
46.53
46.89
46.87
46.43
45.58
44.33
42.71
40.76
38.55
36.15
33.68
31.24
28.88
26.58
24.23
21.67
18.80
15.59
12.14
8.56
4.99
1.44
-2.13
-5.83
-9.75
-13.85
-18.01
-22.08
-25.90
-29.47
-32.84
-36.19
-39.70
-43.57
-47.96
-53.02
-58.74
-64.85
-70.74
-75.46
-77.96
-77.38
-73.34
-66.09
-56.48
-45.61
-34.57
-24.16
-14.75
-6.37
1.15
7.96
14.15
19.74
24.62
28.72
31.98
34.43
36.17
37.31
37.97
38.26
38.31
38.26
38.24
38.32
38.48
38.56
38.36
37.67
36.37
34.49
32.20
29.76
27.39
25.26
23.40
21.70
20.07
18.40
16.70
15.05
13.53
12.24
11.17
10.31
9.59
8.94
8.29
7.59
6.86
6.19
5.75
5.78
6.45
7.78
9.65
11.91
14.46
17.40
20.97
25.41
30.81
36.94
43.20
48.67
52.24
52.87
49.81
42.74
31.93
18.20
2.79
-12.88
-27.47
-39.93
-49.66
-56.46
-60.50
-62.18
-62.08
-60.71
-58.63
-56.45
-55.01
-55.30
-58.27
-64.46
-73.58
-84.30
-94.42
-101.49
-103.74
-100.65
-92.86
-81.62
-68.11
-53.02
-36.55
-18.72
0.01
18.17
33.48
43.72
47.73
46.02
40.56
34.14
29.81
29.65
33.49
38.98
42.65
41.56
34.56
22.65
8.93
-1.62
-3.76
5.02
23.76
47.98
71.20
87.11
91.21
82.80
66.31
49.63
39.70
40.48
51.99
71.67
95.80
119.68
133.79
128.53
101.99
60.74
16.37
-22.90
-55.14
-81.39
-105.08
-129.81
-156.09
-173.74
-173.41
-148.13
-97.90
-31.66
34.17
80.99
95.42
75.30
30.13
-24.54
-72.12
-100.09
-102.09
-78.13
-33.75
21.71
77.44
122.77
147.62
145.04
112.94
55.97
-14.15
-80.45
-124.56
-131.79
-96.78
-27.21
58.20
135.27
182.52
187.74
151.06
83.93
4.99
-64.78
-107.56
-112.64
-79.20
-17.29
54.34
113.43
141.33
129.74
84.08
21.64
-34.71
-65.44
-61.55
-27.28
22.38
68.10
93.15
88.88
56.96
7.67
-44.42
-85.54
-106.72
-105.63
-85.66
-54.47
-21.51
4.44
17.32
15.59
2.27
-15.95
-31.09
-36.78
-30.64
-15.49
2.10
14.91
18.10
10.97
-3.35
-20.05
-34.28
-42.44
-42.91
-36.37
-26.35
-18.68
-20.15
-35.57
-64.89
-102.44
-138.69
-164.45
-175.07
-172.16
-161.46
-149.05
-138.11
-128.36
-118.47
-108.38
-100.31
-97.21
-100.21
-106.65
-110.55
-105.57
-88.29
-60.16
-26.95
3.92
26.56
38.51
41.03
37.74
32.61
28.26
25.22
22.42
18.20
11.60
3.17
-5.17
-11.00
-12.53
-9.60
-3.57
3.32
9.07
12.82
15.05
17.15
20.56
25.86
32.57
39.42
45.01
48.47
49.82
49.75
49.27
49.14
49.60
50.34
50.81
50.55
49.47
47.89
46.31
45.17
44.61
44.43
44.17
43.39
41.82
39.44
36.56
33.57
30.83
28.63
27.03
25.92
25.03
24.07
22.80
21.09
18.98
16.69
14.43
12.37
10.57
8.92
7.20
5.18
2.75
-0.14
-3.41
-6.96
-10.68
-14.50
-18.34
-22.14
-25.91
-29.73
-33.87
-38.64
-44.22
-50.49
-56.75
-61.90
-64.67
-64.11
-59.87
-52.41
-42.77
-32.20
-21.79
-12.21
-3.68
3.86
10.61
16.64
21.90
26.29
29.73
32.25
34.02
35.25
36.24
37.19
38.22
39.34
40.45
41.46
42.30
42.95
43.35
43.45
43.14
42.32
40.95
39.08
36.89
34.59
32.36
30.29
28.36
26.49
24.60
22.62
20.49
18.11
15.40
12.35
8.99
5.47
1.95
-1.46
-4.76
-8.05
-11.49
-15.18
-19.12
-23.19
-27.22
-31.01
-34.51
-37.73
-40.88
-44.19
-47.93
-52.36
-57.61
-63.65
-70.07
-76.09
-80.63
-82.56
-81.02
-75.77
-67.24
-56.50
-44.75
-33.07
-22.12
-12.15
-3.10
5.22
12.90
19.97
26.34
31.89
36.53
40.22
43.04
45.11
46.60
47.66
48.43
48.98
49.42
49.84
50.28
50.72
51.04
51.06
50.60
49.55
47.97
46.01
43.89
41.80
39.85
38.03
36.24
34.35
32.23
29.83
27.27
24.71
22.32
20.21
18.29
16.34
14.15
11.57
8.63
5.49
2.41
-0.46
-3.10
-5.62
-8.22
-11.09
-14.37
-18.03
-21.94
-25.93
-29.84
-33.62
-37.35
-41.22
-45.52
-50.48
-56.22
-62.55
-68.91
-74.36
-77.75
-78.09
-74.82
-68.09
-58.68
-47.76
-36.49
-25.73
-15.89
-7.04
0.94
8.17
14.73
20.60
25.73
30.09
33.65
36.41
38.41
39.77
40.65
41.24
41.73
42.22
42.78
43.37
43.95
44.36
44.41
43.90
42.68
40.77
38.39
35.85
33.51
31.56
30.04
28.76
27.54
26.15
24.51
22.65
20.67
18.68
16.80
15.02
13.26
11.44
9.45
7.29
5.01
2.75
0.58
-1.55
-3.80
-6.40
-9.56
-13.29
-17.46
-21.74
-25.78
-29.33
-32.32
-34.92
-37.45
-40.28
-43.72
-47.92
-52.73
-57.62
-61.70
-63.92
-63.36
-59.53
-52.63
-43.46
-33.19
-22.97
-13.58
-5.34
1.86
8.29
14.15
19.47
24.09
27.84
30.60
32.41
33.42
33.93
34.20
34.44
34.75
35.12
35.53
35.90
36.18
36.31
36.23
35.82
34.94
33.49
31.51
29.17
26.72
24.41
22.39
20.65
19.11
17.67
16.28
14.92
13.60
12.25
10.79
9.17
7.40
5.55
3.65
1.73
-0.33
-2.71
-5.60
-9.07
-13.07
-17.43
-21.88
-26.18
-30.21
-33.99
-37.66
-41.42
-45.46
-49.99
-55.08
-60.66
-66.46
-71.87
-75.97
-77.78
-76.49
-71.83
-64.17
-54.40
-43.63
-32.90
-22.82
-13.65
-5.33
2.31
9.39
15.92
21.79
26.88
31.04
34.24
36.58
38.28
39.60
40.77
41.89
42.95
43.85
44.55
45.06
45.44
45.72
45.88
45.81
45.33
44.38
42.98
41.31
39.62
38.09
36.77
35.48
33.90
31.73
28.82
25.31
21.61
18.20
15.43
13.37
11.72
10.07
8.04
5.46
2.46
-0.66
-3.53
-5.85
-7.57
-8.83
-9.96
-11.38
-13.41
-16.19
-19.51
-22.97
-26.10
-28.65
-30.73
-32.83
-35.76
-40.30
-46.91
-55.37
-64.63
-72.85
-77.92
-78.04
-72.28
-60.96
-45.54
-28.30
-11.78
1.61
10.13
13.00
10.63
4.51
-3.14
-10.05
-14.69
-16.59
-16.29
-14.77
-12.73
-10.30
-7.10
-2.75
2.69
8.59
13.99
18.13
20.77
22.23
23.20
24.29
25.73
27.39
28.93
30.06
30.73
31.10
31.33
31.35
30.82
29.21
26.18
21.73
16.40
11.05
6.51
3.17
0.70
-1.79
-5.38
-10.67
-17.49
-24.83
-31.35
-36.08
-38.87
-40.55
-42.49
-45.90
-51.20
-57.76
-64.17
-68.88
-70.86
-69.92
-66.57
-61.56
-55.50
-48.78
-41.77
-34.94
-28.86
-23.65
-18.89
-13.78
-7.81
-1.46
3.93
6.95
7.31
6.34
6.34
9.03
14.20
19.67
22.59
21.38
16.90
11.99
9.78
11.73
16.80
22.14
24.73
22.95
17.08
8.92
0.69
-5.79
-9.50
-10.12
-7.85
-3.40
1.91
6.34
8.18
6.43
1.28
-5.98
-13.21
-18.22
-19.18
-14.93
-5.28
8.36
22.99
34.52
39.25
35.55
24.91
11.51
0.26
-5.92
-7.64
-8.74
-13.77
-25.14
-41.35
-57.60
-68.16
-69.12
-60.03
-43.56
-23.94
-4.98
11.02
23.31
31.94
36.96
38.07
34.82
27.40
16.89
5.18
-5.66
-13.94
-18.90
-20.72
-20.20
-18.27
-15.55
-12.31
-8.49
-4.11
0.61
5.14
8.88
11.36
12.45
12.41
11.79
11.19
11.10
11.76
13.12
14.86
16.53
17.67
17.98
17.26
15.47
12.64
8.87
4.35
-0.61
-5.67
-10.42
-14.60
-18.18
-21.41
-24.79
-28.94
-34.38
-41.36
-49.75
-58.92
-67.83
-75.25
-79.98
-81.24
-78.91
-73.46
-65.72
-56.53
-46.33
-35.12
-22.74
-9.24
4.81
18.35
30.19
39.54
46.32
51.26
55.47
59.92
64.97
70.16
74.56
77.20
77.70
76.67
75.70
76.94
82.47
93.49
109.78
129.43
149.06
164.56
171.93
168.36
153.17
128.21
97.71
67.18
42.00
25.87
19.98
22.98
31.82
43.17
54.46
64.42
72.71
79.26
83.71
85.41
83.91
79.67
74.46
70.94
71.78
78.39
90.10
104.09
116.30
122.95
122.03
114.08
101.73
88.51
77.35
69.49
64.42
60.64
56.74
52.18
47.22
42.44
38.05
33.71
28.77
22.87
16.33
10.08
5.25
2.51
1.71
2.01
2.16
1.08
-1.73
-6.02
-11.01
-15.74
-19.60
-22.59
-25.29
-28.58
-33.22
-39.52
-47.30
-56.10
-65.38
-74.79
-84.21
-93.64
-103.05
-112.37
-121.39
-129.86
-137.53
-144.21
-149.73
-153.85
-156.24
-156.50
-154.23
-149.19
-141.41
-131.17
-118.89
-105.06
-90.22
-74.96
-59.93
-45.79
-33.03
-21.90
-12.35
-4.17
2.86
8.87
13.95
18.28
22.13
25.90
29.85
34.05
38.28
42.19
45.42
47.79
49.32
50.22
50.80
51.32
51.91
52.51
52.93
52.92
52.22
50.60
47.91
43.97
38.75
32.33
25.05
17.37
9.72
2.34
-4.85
-12.22
-20.14
-28.83
-38.14
-47.69
-57.00
-65.77
-74.01
-81.97
-90.01
-98.43
-107.25
-116.16
-124.46
-131.17
-135.19
-135.61
-131.97
-124.50
-114.03
-101.75
-88.81
-75.96
-63.45
-51.13
-38.74
-26.23
-13.87
-2.16
8.36
17.26
24.37
29.77
33.77
36.88
39.82
43.27
47.67
52.81
57.72
60.82
60.58
56.32
48.71
39.70
31.77
26.95
25.97
28.21
32.18
36.31
39.58
41.71
42.94
43.60
43.88
43.76
43.13
42.00
40.39
38.34
35.74
32.41
28.28
23.49
18.58
14.30
11.39
10.16
10.35
11.20
11.73
11.15
9.16
5.96
2.02
-2.12
-6.03
-9.42
-12.10
-13.94
-14.91
-15.21
-15.17
-15.10
-15.02
-14.42
-12.38
-7.90
-0.36
10.04
22.26
34.69
45.76
54.44
60.54
64.54
67.20
69.14
70.48
70.93
69.85
66.56
60.62
51.88
40.52
26.84
11.06
-6.73
-26.54
-48.16
-70.81
-93.06
-113.03
-128.97
-139.74
-145.17
-146.02
-143.45
-138.61
-132.35
-125.38
-118.38
-112.23
-107.73
-105.25
-104.36
-103.67
-101.19
-94.83
-83.18
-66.09
-44.92
-22.36
-1.62
14.55
24.66
28.80
28.22
24.52
18.90
11.65
2.49
-9.05
-23.07
-39.22
-56.96
-75.87
-95.85
-117.03
-139.40
-162.58
-185.62
-207.04
-225.16
-238.57
-246.41
-248.52
-245.10
-236.15
-221.14
-199.18
-169.78
-133.80
-93.77
-53.40
-16.22
15.76
42.67
66.26
88.64
110.96
133.29
155.24
176.91
199.14
222.52
245.93
266.08
278.66
281.07
274.73
265.26
259.88
263.50
275.84
291.60
303.24
305.02
295.54
277.17
253.17
224.84
190.61
147.95
96.63
40.90
-11.03
-50.12
-70.76
-73.36
-64.30
-52.86
-47.39
-52.10
-66.36
-86.29
-107.36
-125.94
-139.42
-145.24
-140.78
-124.89
-99.91
-72.73
-52.96
-48.83
-62.82
-89.81
-119.37
-140.82
-148.30
-142.90
-130.93
-119.74
-113.85
-113.49
-115.90
-117.88
-117.78
-115.73
-112.77
-109.45
-105.33
-99.16
-89.86
-77.26
-62.55
-47.93
-35.78
-27.68
-23.68
-22.21
-20.73
-16.81
-9.28
1.30
12.83
22.71
29.01
31.31
30.64
28.91
27.89
28.50
30.62
33.38
35.82
37.30
37.75
37.55
37.24
37.22
37.66
38.38
39.14
39.71
39.94
39.84
39.48
38.92
38.21
37.38
36.51
35.65
34.91
34.34
34.00
33.81
33.71
33.58
33.35
32.99
32.49
31.80
30.74
28.98
26.10
21.74
15.75
8.48
0.78
-6.09
-10.76
-12.16
-9.73
-3.65
5.32
16.02
27.18
37.63
46.53
53.46
58.45
61.91
64.50
66.91
69.64
72.86
76.43
79.91
82.74
84.38
84.50
83.02
80.25
76.83
73.59
71.31
70.48
71.10
72.70
74.44
75.45
75.09
73.13
69.79
65.60
61.24
57.33
54.17
51.75
49.62
47.12
43.66
38.99
33.32
27.23
21.39
16.21
11.67
7.41
2.97
-1.89
-7.11
-12.45
-17.67
-22.72
-27.82
-33.25
-39.31
-46.05
-53.33
-60.74
-67.62
-73.15
-76.44
-76.79
-73.84
-67.78
-59.29
-49.31
-38.76
-28.33
-18.37
-8.96
-0.09
8.16
15.59
21.89
26.88
30.49
32.90
34.37
35.18
35.51
35.46
35.12
34.65
34.25
34.11
34.30
34.67
34.94
34.78
33.95
32.43
30.37
28.04
25.70
23.54
21.60
19.79
17.94
15.86
13.40
10.51
7.25
3.77
0.25
-3.15
-6.33
-9.32
-12.21
-15.17
-18.37
-21.91
-25.76
-29.75
-33.64
-37.28
-40.65
-43.94
-47.46
-51.56
-56.44
-62.04
-67.98
-73.50
-77.60
-79.24
-77.63
-72.46
-64.03
-53.20
-41.12
-28.92
-17.44
-7.12
2.01
10.08
17.26
23.58
28.95
33.20
36.24
38.16
39.21
39.72
39.98
40.17
40.33
40.42
40.44
40.41
40.41
40.42
40.31
39.90
39.02
37.64
35.86
33.91
31.97
30.13
28.33
26.48
24.47
22.32
20.11
17.95
15.94
14.11
12.44
10.88
9.38
7.86
6.27
4.49
2.42
-0.04
-2.93
-6.23
-9.85
-13.66
-17.46
-21.11
-24.49
-27.60
-30.53
-33.47
-36.66
-40.28
-44.37
-48.72
-52.78
-55.75
-56.77
-55.14
-50.65
-43.64
-34.91
-25.47
-16.16
-7.47
0.49
7.84
14.67
20.92
26.37
30.73
33.79
35.54
36.15
35.85
34.86
33.30
31.22
28.71
25.94
23.17
20.67
18.59
16.93
15.48
14.00
12.33
10.45
8.53
6.79
5.45
4.54
4.01
3.68
3.33
2.78
1.89
0.66
-0.88
-2.59
-4.40
-6.24
-8.12
-10.10
-12.22
-14.55
-17.10
-19.86
-22.74
-25.64
-28.40
-30.93
-33.18
-35.17
-37.08
-39.10
-41.42
-44.09
-46.93
-49.48
-51.06
-50.95
-48.54
-43.64
-36.48
-27.72
-18.20
-8.77
-0.03
7.74
14.45
20.13
24.82
28.48
31.07
32.57
33.11
32.93
32.32
31.57
30.86
30.25
29.64
28.88
27.90
26.68
25.30
23.85
22.34
20.68
18.70
16.35
13.66
10.89
8.32
6.22
4.63
3.43
2.32
0.99
-0.76
-2.94
-5.40
-7.87
-10.08
-11.90
-13.38
-14.69
-16.08
-17.75
-19.78
-22.14
-24.74
-27.49
-30.36
-33.35
-36.47
-39.74
-43.22
-46.99
-51.16
-55.68
-60.25
-64.27
-66.92
-67.36
-65.04
-59.94
-52.55
-43.78
-34.61
-25.82
-17.81
-10.62
-4.07
2.05
7.79
13.08
17.72
21.58
24.63
26.97
28.76
30.13
31.11
31.68
31.81
31.59
31.14
30.65
30.19
29.74
29.17
28.35
27.20
25.77
24.14
22.43
20.69
18.89
16.96
14.84
12.54
10.16
7.89
5.88
4.23
2.89
1.72
0.54
-0.80
-2.34
-4.04
-5.83
-7.70
-9.72
-12.00
-14.65
-17.70
-21.06
-24.57
-28.06
-31.34
-34.34
-37.03
-39.55
-42.10
-44.95
-48.34
-52.34
-56.78
-61.15
-64.65
-66.39
-65.65
-62.04
-55.66
-47.09
-37.16
-26.81
-16.77
-7.58
0.58
7.68
13.80
19.04
23.45
27.05
29.84
31.87
33.17
33.84
33.97
33.67
33.10
32.43
31.86
31.58
31.70
32.17
32.79
33.27
33.33
32.80
31.73
30.31
28.81
27.49
26.41
25.55
24.76
23.89
22.79
21.36
19.50
17.18
14.38
11.21
7.79
4.27
0.72
-2.91
-6.74
-10.92
-15.57
-20.68
-26.15
-31.74
-37.12
-41.89
-45.70
-48.35
-49.85
-50.43
-50.54
-50.59
-50.90
-51.56
-52.37
-52.93
-52.66
-51.02
-47.61
-42.32
-35.36
-27.27
-18.74
-10.44
-2.89
3.67
9.19
13.81
17.69
20.94
23.63
25.76
27.37
28.56
29.47
30.34
31.34
32.47
33.67
34.76
35.58
36.07
36.26
36.21
35.95
35.39
34.40
32.89
30.80
28.22
25.35
22.41
19.63
17.13
14.89
12.79
10.64
8.29
5.70
2.98
0.32
-2.09
-4.19
-6.02
-7.77
-9.69
-11.98
-14.76
-17.96
-21.39
-24.75
-27.77
-30.27
-32.31
-34.20
-36.41
-39.47
-43.73
-49.21
-55.54
-61.94
-67.31
-70.55
-70.76
-67.54
-61.08
-52.11
-41.69
-30.87
-20.50
-11.03
-2.54
5.07
12.03
18.43
24.28
29.47
33.92
37.55
40.40
42.55
44.13
45.26
46.00
46.43
46.60
46.59
46.45
46.19
45.73
44.91
43.61
41.72
39.29
36.51
33.62
30.88
28.43
26.24
24.14
21.88
19.26
16.18
12.71
9.05
5.45
2.13
-0.79
-3.32
-5.54
-7.61
-9.65
-11.80
-14.15
-16.75
-19.69
-22.99
-26.58
-30.32
-34.02
-37.52
-40.73
-43.72
-46.71
-50.00
-53.81
-58.19
-62.81
-67.02
-69.90
-70.50
-68.15
-62.67
-54.44
-44.27
-33.18
-22.17
-11.98
-3.05
4.45
10.64
15.73
20.00
23.68
26.92
29.71
31.90
33.22
33.40
32.35
30.25
27.60
25.08
23.34
22.81
23.47
24.98
26.78
28.30
29.13
29.07
28.07
26.21
23.61
20.50
17.20
14.07
11.50
9.77
9.02
9.19
10.01
11.01
11.60
11.29
9.87
7.60
5.13
3.31
2.92
4.28
7.23
11.03
14.65
17.07
17.62
16.16
13.17
9.60
6.58
5.06
5.50
7.79
11.43
15.78
20.29
24.62
28.48
31.48
33.13
32.94
30.70
26.76
21.94
17.28
13.63
11.47
10.82
11.41
12.91
15.13
18.15
22.09
27.05
32.96
39.76
47.39
55.66
64.19
72.32
79.40
84.83
88.14
89.30
88.97
88.41
89.03
91.87
96.93
103.25
108.61
109.91
103.98
88.71
63.73
30.64
-7.21
-45.42
-78.75
-102.52
-113.86
-112.24
-99.15
-77.47
-50.59
-21.82
2.96
18.70
23.02
15.71
-2.38
-29.17
-60.73
-91.66
-118.65
-139.65
-153.64
-161.73
-166.94
-172.61
-180.12
-187.56
-190.35
-176.63
-139.48
-77.50
3.62
92.37
174.84
239.17
278.00
289.25
275.28
240.62
191.71
135.33
77.07
20.23
-34.60
-88.41
-141.28
-189.65
-226.12
-240.34
-223.40
-172.69
-94.53
-3.25
82.61
146.01
176.31
171.49
138.10
87.77
32.49
-19.16
-63.90
-102.82
-138.67
-172.61
-202.23
-221.12
-221.22
-195.99
-143.23
-67.08
22.36
110.90
183.63
228.14
237.82
213.55
163.06
98.47
31.47
-30.02
-83.04
-128.15
-166.29
-195.81
-212.16
-210.18
-185.85
-140.17
-78.78
-10.20
55.97
110.74
146.75
159.29
146.20
111.62
62.01
5.34
-51.39
-102.87
-144.39
-170.49
-174.92
-154.21
-106.00
-36.78
40.24
108.71
154.18
168.62
152.18
111.56
54.69
-6.43
-64.48
-115.28
-157.47
-191.00
-214.97
-227.07
-211.35
-182.45
-138.37
-82.22
-19.63
42.41
97.13
141.08
175.19
203.00
225.60
246.08
262.16
268.85
260.92
236.16
199.98
164.40
141.48
134.06
138.34
141.33
128.32
89.96
25.65
-53.76
-126.14
-180.15
-215.96
-241.96
-270.08
-307.18
-350.53
-390.42
-411.76
-401.79
-339.80
-229.93
-101.88
6.65
73.34
113.84
148.43
190.62
239.84
285.11
309.89
303.88
269.14
218.14
165.53
118.48
78.43
44.47
17.04
-1.60
-5.88
10.38
48.76
103.43
160.30
204.07
222.97
211.17
167.71
98.02
13.06
-74.15
-152.80
-218.03
-268.74
-304.92
-325.11
-326.68
-306.96
-265.79
-207.36
-139.63
-71.70
-10.32
40.55
78.61
101.43
107.53
98.44
79.67
59.06
42.37
30.54
20.31
8.50
-3.46
-8.56
1.85
31.78
76.01
120.88
150.33
153.41
128.85
84.50
33.08
-13.32
-47.51
-68.71
-81.80
-94.28
-112.62
-138.13
-165.47
-183.69
-181.12
-151.18
-95.95
-25.68
45.45
104.13
141.86
156.30
150.94
133.26
112.15
94.64
82.79
72.96
58.21
33.72
1.01
-31.43
-52.65
-55.76
-41.62
-18.01
5.86
24.45
37.39
46.67
52.78
53.14
44.99
29.74
14.66
10.33
23.97
53.89
88.19
110.09
106.16
72.44
15.45
-52.30
-118.56
-175.33
-218.61
-245.28
-250.34
-228.00
-176.13
-101.04
-18.29
52.69
97.24
112.12
105.50
90.66
77.67
68.57
59.61
47.48
34.74
29.23
38.55
62.72
91.25
106.80
93.49
44.93
-32.73
-123.76
-209.53
-274.86
-311.08
-315.95
-291.63
-243.20
-178.08
-106.60
-41.42
4.55
22.36
10.97
-21.69
-62.01
-96.77
-119.31
-131.51
-140.18
-150.81
-162.09
-166.09
-153.41
-119.94
-70.50
-16.53
29.78
61.57
79.72
91.02
103.86
124.20
153.24
187.20
218.67
239.39
243.55
230.33
204.53
174.48
148.59
132.02
125.40
126.20
131.18
137.60
142.31
141.20
129.26
103.48
66.09
25.04
-8.62
-26.39
-26.30
-13.97
1.14
10.66
11.18
4.47
-4.65
-11.37
-13.08
-9.23
-3.97
-2.01
-7.51
-20.03
-33.70
-40.64
-35.12
-16.85
9.80
36.83
56.41
64.01
60.05
47.96
31.71
16.27
0.34
-16.65
-34.03
-49.34
-59.57
-62.55
-58.39
-49.69
-40.43
-34.74
-34.53
-40.02
-49.56
-60.46
-70.04
-76.23
-78.58
-78.31
-78.01
-79.94
-85.62
-95.12
-107.11
-119.26
-129.09
-134.72
-135.25
-131.05
-122.96
-112.34
-100.44
-87.97
-75.08
-61.48
-47.04
-32.01
-17.17
-3.31
8.97
19.52
28.71
37.14
45.34
53.43
61.09
67.77
72.98
76.53
78.62
79.74
80.48
81.30
82.41
83.77
85.15
86.30
86.97
87.00
86.35
85.01
83.10
80.74
78.06
75.13
72.02
68.73
65.32
61.83
58.36
54.97
51.68
48.43
45.17
41.88
38.63
35.62
33.03
30.92
29.21
27.62
25.80
23.49
20.58
17.17
13.48
9.72
6.01
2.27
-1.63
-5.93
-10.78
-16.21
-22.17
-28.44
-34.78
-40.89
-46.34
-50.60
-53.09
-53.24
-50.68
-45.42
-37.84
-28.64
-18.67
-8.73
0.54
8.71
15.53
20.81
24.41
26.26
26.41
25.10
22.83
20.20
17.79
16.01
14.97
14.58
14.57
14.67
14.65
14.39
13.80
12.87
11.61
10.11
8.50
6.88
5.26
3.54
1.60
-0.65
-3.20
-5.96
-8.79
-11.61
-14.39
-17.19
-20.03
-22.90
-25.77
-28.60
-31.35
-33.99
-36.50
-38.81
-40.91
-42.78
-44.55
-46.42
-48.60
-51.22
-54.09
-56.70
-58.25
-57.86
-54.85
-48.98
-40.58
-30.45
-19.55
-8.84
1.04
9.72
17.16
23.35
28.35
32.15
34.73
36.14
36.54
36.21
35.47
34.60
33.75
32.93
32.08
31.15
30.17
29.16
28.15
27.12
25.94
24.50
22.68
20.47
17.93
15.15
12.23
9.26
6.34
3.55
0.99
-1.28
-3.28
-5.04
-6.63
-8.14
-9.68
-11.36
-13.30
-15.56
-18.13
-20.84
-23.43
-25.65
-27.37
-28.67
-29.85
-31.33
-33.48
-36.43
-39.95
-43.43
-46.03
-46.83
-45.15
-40.69
-33.65
-24.73
-14.84
-4.93
4.28
12.44
19.58
25.94
31.82
37.39
42.60
47.26
51.11
53.98
55.93
57.20
58.16
59.13
60.27
61.57
62.85
63.88
64.51
64.64
64.31
63.58
62.53
61.22
59.68
57.91
55.91
53.71
51.36
48.85
46.11
42.97
39.22
34.64
29.09
22.58
15.24
7.40
-0.58
-8.28
-15.35
-21.56
-26.90
-31.54
-35.75
-39.80
-43.84
-47.78
-51.34
-54.08
-55.63
-55.75
-54.49
-52.22
-49.56
-47.19
-45.61
-44.99
-44.97
-44.79
-43.47
-40.15
-34.43
-26.49
-17.10
-7.35
1.65
9.13
14.71
18.42
20.45
21.05
20.42
18.75
16.29
13.41
10.55
8.15
6.46
5.48
5.01
4.78
4.59
4.39
4.27
4.32
4.60
4.97
5.20
5.03
4.29
2.97
1.26
-0.52
-2.03
-3.09
-3.65
-3.93
-4.19
-4.72
-5.67
-7.00
-8.57
-10.19
-11.74
-13.20
-14.65
-16.19
-17.92
-19.82
-21.80
-23.72
-25.47
-27.03
-28.48
-29.92
-31.43
-33.04
-34.80
-36.77
-39.03
-41.56
-44.09
-46.10
-46.81
-45.52
-41.85
-35.93
-28.37
-20.07
-11.89
-4.44
1.98
7.28
11.43
14.39
16.10
16.62
16.13
15.06
13.89
13.04
12.72
12.94
13.50
14.16
14.74
15.17
15.44
15.53
15.41
15.02
14.30
13.24
11.88
10.32
8.67
7.02
5.46
4.01
2.65
1.33
-0.05
-1.53
-3.12
-4.77
-6.43
-8.08
-9.84
-11.87
-14.31
-17.19
-20.38
-23.63
-26.72
-29.55
-32.21
-34.89
-37.88
-41.42
-45.55
-50.14
-54.75
-58.70
-61.19
-61.43
-58.90
-53.53
-45.65
-36.05
-25.65
-15.31
-5.70
2.76
9.89
15.69
20.23
23.64
26.08
27.70
28.65
29.04
29.01
28.71
28.32
28.04
27.98
28.16
28.54
29.02
29.56
30.09
30.57
30.88
30.86
30.31
29.13
27.41
25.40
23.38
21.57
20.01
18.54
16.91
14.93
12.53
9.78
6.86
4.01
1.37
-0.99
-3.17
-5.34
-7.74
-10.54
-13.77
-17.33
-21.00
-24.61
-28.10
-31.56
-35.23
-39.37
-44.16
-49.58
-55.33
-60.78
-65.08
-67.24
-66.49
-62.42
-55.25
-45.68
-34.79
-23.70
-13.29
-4.07
3.82
10.47
16.04
20.64
24.33
27.15
29.20
30.69
31.83
32.81
33.71
34.49
35.11
35.55
35.90
36.27
36.73
37.20
37.51
37.42
36.79
35.65
34.16
32.52
30.92
29.38
27.87
26.26
24.47
22.45
20.25
17.94
15.62
13.38
11.26
9.26
7.30
5.27
2.98
0.29
-2.93
-6.69
-10.85
-15.22
-19.50
-23.50
-27.15
-30.60
-34.11
-38.05
-42.61
-47.67
-52.75
-57.05
-59.63
-59.67
-56.70
-50.71
-42.17
-31.92
-20.98
-10.35
-0.79
7.22
13.56
18.31
21.69
23.95
25.28
25.87
25.91
25.61
25.19
24.83
24.66
24.75
25.07
25.54
26.04
26.42
26.55
26.34
25.75
24.77
23.44
21.77
19.75
17.45
14.93
12.35
9.87
7.64
5.64
3.74
1.75
-0.55
-3.26
-6.35
-9.67
-12.99
-16.11
-18.94
-21.51
-23.94
-26.48
-29.36
-32.73
-36.54
-40.49
-44.00
-46.34
-46.78
-44.78
-40.15
-33.11
-24.28
-14.50
-4.66
4.46
12.34
18.68
23.42
26.58
28.34
28.90
28.48
27.40
25.98
24.54
23.35
22.60
22.38
22.63
23.25
24.03
24.76
25.28
25.47
25.20
24.39
22.97
20.94
18.38
15.47
12.37
9.18
5.87
2.32
-1.59
-5.83
-10.28
-14.72
-18.98
-22.96
-26.70
-30.26
-33.75
-37.30
-41.05
-45.05
-49.10
-52.70
-55.07
-55.28
-52.70
-47.12
-38.93
-28.92
-18.11
-7.39
2.59
11.47
19.12
25.50
30.61
34.41
36.83
37.85
37.58
36.30
34.43
32.39
30.54
29.04
27.88
26.97
26.18
25.40
24.53
23.49
22.21
20.64
18.80
16.69
14.31
11.65
8.63
5.26
1.63
-2.13
-5.87
-9.50
-13.03
-16.55
-20.20
-24.12
-28.49
-33.47
-39.09
-45.10
-50.84
-55.35
-57.61
-56.78
-52.60
-45.40
-35.92
-25.10
-13.78
-2.51
8.28
18.29
27.18
34.58
40.22
44.02
46.12
46.84
46.59
45.69
44.41
42.93
41.39
39.92
38.61
37.57
36.77
36.19
35.70
35.16
34.42
33.27
31.52
28.99
25.61
21.46
16.79
11.94
7.23
2.86
-1.13
-4.84
-8.41
-12.03
-15.87
-20.03
-24.49
-29.02
-33.08
-35.91
-36.72
-34.94
-30.40
-23.45
-14.84
-5.44
3.90
12.58
20.24
26.71
31.94
35.93
38.71
40.35
40.95
40.70
39.79
38.44
36.82
35.03
33.16
31.24
29.31
27.48
25.82
24.33
22.88
21.24
19.12
16.34
12.92
9.13
5.33
1.84
-1.24
-4.05
-6.92
-10.20
-14.06
-18.48
-23.21
-27.95
-32.44
-36.55
-40.37
-44.08
-47.94
-52.14
-56.67
-61.22
-65.19
-67.74
-68.01
-65.37
-59.64
-51.16
-40.67
-29.19
-17.70
-6.97
2.58
10.86
18.01
24.22
29.61
34.16
37.73
40.21
41.56
41.94
41.65
41.02
40.31
39.62
38.97
38.29
37.53
36.72
35.91
35.13
34.35
33.49
32.40
30.94
29.08
26.91
24.56
22.25
20.15
18.27
16.53
14.74
12.74
10.43
7.84
5.12
2.50
0.08
-2.10
-4.17
-6.35
-8.79
-11.58
-14.62
-17.75
-20.74
-23.50
-26.04
-28.48
-30.98
-33.68
-36.69
-40.06
-43.79
-47.73
-51.54
-54.57
-56.02
-55.11
-51.37
-44.87
-36.23
-26.45
-16.58
-7.43
0.61
7.53
13.51
18.78
23.41
27.33
30.42
32.60
33.97
34.72
35.10
35.30
35.39
35.31
35.01
34.48
33.77
33.02
32.31
31.67
30.95
30.01
28.69
26.95
24.84
22.48
20.04
17.63
15.35
13.25
11.34
9.61
8.05
6.62
5.25
3.89
2.48
1.03
-0.42
-1.80
-3.08
-4.26
-5.43
-6.71
-8.19
-9.89
-11.72
-13.58
-15.41
-17.15
-18.82
-20.40
-21.84
-23.08
-24.18
-25.34
-26.89
-29.12
-32.06
-35.31
-38.09
-39.47
-38.67
-35.36
-29.76
-22.59
-14.75
-7.11
-0.32
5.31
9.73
13.10
15.61
17.42
18.63
19.27
19.39
19.08
18.51
17.85
17.24
16.72
16.29
15.85
15.42
15.05
14.83
14.80
14.88
14.89
14.67
14.11
13.22
12.11
10.86
9.49
7.93
6.14
4.14
2.03
-0.01
-1.87
-3.54
-5.13
-6.79
-8.63
-10.63
-12.71
-14.72
-16.55
-18.15
-19.54
-20.82
-22.17
-23.75
-25.77
-28.31
-31.32
-34.50
-37.38
-39.31
-39.67
-37.99
-34.16
-28.46
-21.53
-14.21
-7.29
-1.30
3.55
7.33
10.25
12.46
13.95
14.71
14.72
14.12
13.14
12.11
11.22
10.58
10.20
9.97
9.84
9.71
9.53
9.26
8.88
8.43
7.94
7.49
7.03
6.48
5.72
4.63
3.17
1.39
-0.61
-2.73
-4.88
-6.98
-8.97
-10.83
-12.55
-14.16
-15.73
-17.34
-19.02
-20.75
-22.43
-23.96
-25.30
-26.49
-27.69
-29.09
-30.83
-32.92
-35.23
-37.46
-39.20
-40.02
-39.51
-37.36
-33.46
-27.98
-21.37
-14.28
-7.40
-1.32
3.65
7.44
10.18
12.03
13.08
13.38
13.00
12.13
11.03
10.05
9.43
9.28
9.53
10.03
10.66
11.31
11.96
12.57
13.06
13.33
13.30
12.93
12.27
11.41
10.42
9.37
8.25
7.09
5.93
4.81
3.78
2.86
2.00
1.12
0.16
-0.95
-2.17
-3.51
-4.93
-6.45
-8.09
-9.92
-11.95
-14.11
-16.29
-18.31
-20.02
-21.36
-22.37
-23.24
-24.19
-25.48
-27.26
-29.47
-31.80
-33.70
-34.48
-33.55
-30.53
-25.46
-18.73
-11.02
-3.07
4.44
11.09
16.61
20.92
24.05
26.05
26.99
27.02
26.33
25.21
24.04
23.17
22.83
23.05
23.64
24.32
24.85
25.15
25.28
25.33
25.33
25.17
24.67
23.63
22.01
19.92
17.61
15.32
13.24
11.45
9.88
8.43
6.95
5.28
3.32
1.07
-1.42
-4.01
-6.54
-8.89
-11.03
-13.04
-15.09
-17.31
-19.79
-22.51
-25.38
-28.27
-31.06
-33.73
-36.28
-38.85
-41.61
-44.78
-48.49
-52.70
-57.05
-60.93
-63.48
-63.91
-61.68
-56.68
-49.28
-40.21
-30.35
-20.53
-11.39
-3.30
3.64
9.47
14.30
18.27
21.47
23.96
25.83
27.20
28.20
28.98
29.69
30.44
31.28
32.23
33.28
34.37
35.45
36.45
37.28
37.86
38.05
37.78
36.95
35.60
33.84
31.86
29.87
27.98
26.17
24.33
22.33
20.08
17.63
15.14
12.79
10.69
8.80
6.98
5.05
2.88
0.47
-2.06
-4.61
-7.11
-9.61
-12.26
-15.18
-18.48
-22.09
-25.89
-29.68
-33.26
-36.55
-39.56
-42.45
-45.45
-48.82
-52.73
-57.14
-61.67
-65.61
-68.04
-68.05
-65.00
-58.82
-49.96
-39.31
-27.91
-16.71
-6.37
2.77
10.60
17.13
22.40
26.45
29.35
31.21
32.25
32.71
32.88
32.94
32.98
33.04
33.15
33.29
33.54
33.93
34.44
34.98
35.36
35.38
34.88
33.83
32.30
30.46
28.57
26.79
25.24
23.90
22.66
21.37
19.96
18.40
16.77
15.19
13.75
12.47
11.29
10.13
8.90
7.56
6.10
4.55
2.93
1.22
-0.63
-2.67
-4.96
-7.52
-10.36
-13.40
-16.58
-19.78
-22.89
-25.88
-28.82
-31.83
-35.13
-38.88
-43.07
-47.37
-51.12
-53.46
-53.53
-50.75
-45.03
-36.76
-26.72
-15.84
-5.00
5.12
14.08
21.60
27.56
31.92
34.78
36.30
36.75
36.42
35.63
34.70
33.95
33.67
34.08
35.26
37.11
39.33
41.53
43.36
44.58
45.12
45.02
44.34
43.15
41.41
39.12
36.34
33.27
30.18
27.34
24.95
23.01
21.40
19.89
18.29
16.51
14.54
12.49
10.43
8.42
6.43
4.38
2.22
-0.09
-2.59
-5.27
-8.19
-11.35
-14.74
-18.27
-21.77
-25.02
-27.88
-30.35
-32.60
-34.96
-37.76
-41.20
-45.24
-49.46
-53.17
-55.48
-55.53
-52.73
-46.98
-38.70
-28.79
-18.40
-8.63
-0.21
6.56
11.80
15.89
19.21
22.00
24.32
26.18
27.63
28.78
29.84
30.95
32.17
33.44
34.61
35.56
36.26
36.72
36.97
36.98
36.68
35.97
34.76
33.07
31.00
28.72
26.43
24.28
22.34
20.60
19.03
17.54
16.05
14.54
13.01
11.46
9.86
8.10
6.05
3.62
0.81
-2.22
-5.21
-7.91
-10.17
-12.07
-13.78
-15.57
-17.62
-19.98
-22.54
-25.13
-27.59
-29.79
-31.69
-33.39
-35.10
-37.13
-39.83
-43.42
-47.84
-52.63
-56.94
-59.68
-59.89
-56.98
-51.03
-42.71
-33.09
-23.34
-14.37
-6.69
-0.46
4.50
8.44
11.62
14.22
16.38
18.18
19.72
21.04
22.19
23.16
23.90
24.32
24.40
24.19
23.85
23.57
23.48
23.59
23.75
23.70
23.23
22.26
20.87
19.26
17.63
16.09
14.67
13.29
11.89
10.45
9.00
7.55
6.16
4.84
3.63
2.48
1.38
0.20
-1.19
-2.87
-4.81
-6.88
-8.86
-10.60
-12.10
-13.54
-15.14
-17.12
-19.48
-22.07
-24.58
-26.73
-28.39
-29.65
-30.80
-32.24
-34.32
-37.24
-40.94
-45.04
-48.89
-51.63
-52.38
-50.49
-45.71
-38.38
-29.32
-19.65
-10.46
-2.50
3.87
8.73
12.41
15.24
17.46
19.17
20.40
21.17
21.57
21.73
21.82
21.96
22.18
22.44
22.66
22.73
22.63
22.38
22.00
21.53
20.92
20.09
18.96
17.54
15.96
14.44
13.19
12.34
11.84
11.54
11.19
10.64
9.81
8.74
7.52
6.20
4.72
3.00
0.98
-1.34
-3.83
-6.28
-8.50
-10.43
-12.10
-13.68
-15.35
-17.23
-19.34
-21.55
-23.72
-25.67
-27.37
-28.86
-30.31
-31.95
-33.96
-36.46
-39.43
-42.65
-45.66
-47.83
-48.47
-46.94
-42.92
-36.49
-28.23
-18.99
-9.78
-1.39
5.60
11.03
14.98
17.66
19.34
20.21
20.48
20.30
19.91
19.49
19.26
19.33
19.75
20.49
21.39
22.35
23.25
24.06
24.79
25.49
26.12
26.61
26.79
26.54
25.79
24.63
23.24
21.86
20.68
19.73
18.94
18.10
17.04
15.64
13.86
11.77
9.46
7.06
4.73
2.60
0.75
-0.83
-2.31
-3.93
-5.96
-8.50
-11.48
-14.68
-17.80
-20.65
-23.22
-25.69
-28.38
-31.56
-35.43
-39.90
-44.67
-49.13
-52.53
-54.03
-52.95
-48.97
-42.31
-33.69
-24.15
-14.82
-6.52
0.33
5.74
9.96
13.29
15.90
17.85
19.13
19.79
19.93
19.75
19.43
19.12
18.91
18.84
18.92
19.17
19.57
20.05
20.52
20.82
20.79
20.31
19.31
17.87
16.10
14.17
12.23
10.35
8.52
6.74
5.03
3.43
1.99
0.72
-0.43
-1.54
-2.69
-3.87
-5.05
-6.16
-7.17
-8.09
-9.04
-10.15
-11.57
-13.39
-15.61
-18.12
-20.75
-23.34
-25.79
-28.11
-30.43
-32.96
-35.91
-39.45
-43.62
-48.19
-52.72
-56.48
-58.64
-58.42
-55.38
-49.52
-41.36
-31.77
-21.80
-12.35
-4.10
2.64
7.89
11.86
14.89
17.24
19.14
20.68
21.92
22.89
23.66
24.32
24.99
25.74
26.60
27.50
28.37
29.10
29.64
29.96
30.04
29.86
29.37
28.52
27.28
25.71
23.92
22.06
20.27
18.59
17.03
15.51
13.94
12.24
10.35
8.27
6.03
3.69
1.33
-0.97
-3.17
-5.24
-7.25
-9.29
-11.50
-13.97
-16.72
-19.69
-22.70
-25.53
-28.01
-30.09
-31.85
-33.59
-35.65
-38.30
-41.62
-45.32
-48.78
-51.14
-51.49
-49.17
-43.95
-36.14
-26.50
-16.08
-5.84
3.44
11.37
17.86
22.98
26.90
29.75
31.66
32.72
33.12
33.05
32.80
32.55
32.44
32.50
32.69
32.93
33.20
33.48
33.81
34.20
34.57
34.82
34.83
34.47
33.69
32.50
31.01
29.35
27.63
25.93
24.21
22.37
20.32
17.98
15.42
12.77
10.20
7.89
5.88
4.12
2.43
0.60
-1.55
-4.09
-6.96
-9.99
-12.97
-15.79
-18.37
-20.81
-23.23
-25.82
-28.78
-32.28
-36.40
-40.95
-45.42
-48.94
-50.45
-49.08
-44.47
-36.94
-27.47
-17.35
-7.77
0.51
7.24
12.53
16.64
19.84
22.27
24.01
25.17
25.89
26.31
26.58
26.80
27.03
27.32
27.76
28.39
29.27
30.37
31.64
32.92
34.02
34.74
34.87
34.32
33.09
31.32
29.22
27.00
24.84
22.82
20.93
19.13
17.34
15.52
13.61
11.58
9.39
7.06
4.59
2.06
-0.47
-2.92
-5.26
-7.55
-9.89
-12.43
-15.24
-18.28
-21.40
-24.39
-27.11
-29.54
-31.84
-34.24
-37.01
-40.36
-44.36
-48.96
-53.92
-58.75
-62.70
-64.85
-64.30
-60.51
-53.51
-43.93
-32.90
-21.65
-11.22
-2.17
5.40
11.74
17.17
21.95
26.17
29.77
32.68
34.82
36.24
37.05
37.41
37.50
37.45
37.39
37.37
37.41
37.47
37.50
37.41
37.14
36.68
36.06
35.35
34.63
33.95
33.33
32.74
32.14
31.53
30.91
30.33
29.92
29.77
29.98
30.59
31.58
32.87
34.39
36.06
37.86
39.77
41.75
43.68
45.41
46.78
47.73
48.36
48.91
49.63
50.71
52.21
54.03
55.94
57.51
58.18
57.19
53.81
47.68
39.08
29.08
19.18
10.73
4.35
-0.30
-4.21
-8.47
-13.71
-19.88
-26.47
-32.91
-38.86
-44.24
-49.02
-53.03
-55.91
-57.34
-57.29
-56.08
-54.32
-52.53
-50.95
-49.46
-47.58
-44.81
-40.79
-35.53
-29.45
-23.25
-17.71
-13.42
-10.60
-9.03
-8.25
-7.63
-6.70
-5.20
-3.12
-0.60
2.11
4.71
6.88
8.25
8.56
7.69
5.77
3.15
0.26
-2.55
-5.12
-7.50
-9.87
-12.44
-15.31
-18.45
-21.71
-24.91
-27.90
-30.68
-33.37
-36.17
-39.28
-42.81
-46.76
-51.01
-55.45
-59.95
-64.49
-69.08
-73.76
-78.52
-83.24
-87.69
-91.42
-93.77
-94.06
-91.68
-86.42
-78.56
-68.94
-58.66
-48.79
-40.10
-32.93
-27.19
-22.66
-19.05
-16.19
-14.04
-12.52
-11.56
-11.01
-10.70
-10.47
-10.19
-9.79
-9.18
-8.25
-6.89
-5.07
-2.79
-0.17
2.63
5.41
7.94
10.05
11.65
12.76
13.59
14.37
15.35
16.62
18.09
19.54
20.76
21.65
22.22
22.55
22.71
22.65
22.22
21.27
19.70
17.55
14.90
11.93
8.86
5.87
3.12
0.65
-1.60
-3.78
-6.01
-8.33
-10.65
-12.78
-14.52
-15.84
-16.91
-18.11
-19.92
-22.77
-26.94
-32.41
-38.73
-45.09
-50.39
-53.48
-53.43
-49.88
-43.09
-33.94
-23.68
-13.52
-4.39
3.27
9.41
14.25
18.09
21.20
23.74
25.85
27.60
29.04
30.18
30.99
31.47
31.64
31.61
31.57
31.69
32.07
32.66
33.29
33.69
33.60
32.87
31.47
29.57
27.39
25.22
23.26
21.59
20.21
19.00
17.86
16.71
15.51
14.31
13.15
12.08
11.14
10.26
9.39
8.41
7.21
5.71
3.90
1.82
-0.44
-2.79
-5.21
-7.77
-10.56
-13.63
-16.94
-20.35
-23.70
-26.88
-29.92
-33.00
-36.42
-40.44
-45.14
-50.32
-55.42
-59.61
-61.92
-61.54
-58.04
-51.58
-42.84
-32.88
-22.79
-13.41
-5.16
1.95
8.11
13.55
18.41
22.66
26.21
28.99
31.06
32.58
33.80
34.91
36.08
37.37
38.79
40.34
42.01
43.73
45.35
46.71
47.62
47.98
47.84
47.29
46.48
45.50
44.38
43.14
41.79
40.32
38.71
36.91
34.85
32.51
29.94
27.21
24.39
21.43
18.28
14.85
11.17
7.39
3.71
0.28
-2.85
-5.77
-8.62
-11.53
-14.61
-17.92
-21.46
-25.21
-29.11
-33.03
-36.86
-40.55
-44.15
-47.88
-52.04
-56.84
-62.23
-67.72
-72.35
-74.97
-74.53
-70.45
-62.89
-52.68
-41.04
-29.24
-18.18
-8.35
0.17
7.54
13.92
19.42
24.07
27.86
30.83
33.14
34.99
36.63
38.22
39.80
41.35
42.78
44.04
45.15
46.13
46.95
47.47
47.54
46.98
45.73
43.87
41.58
39.07
36.47
33.86
31.25
28.66
26.11
23.67
21.37
19.20
17.13
15.04
12.85
10.50
8.01
5.45
2.91
0.42
-2.04
-4.60
-7.39
-10.51
-13.96
-17.63
-21.33
-24.88
-28.13
-31.09
-33.83
-36.52
-39.36
-42.61
-46.46
-51.05
-56.19
-61.37
-65.68
-68.01
-67.33
-63.05
-55.22
-44.57
-32.26
-19.62
-7.71
2.79
11.70
19.09
25.21
30.27
34.40
37.70
40.21
42.06
43.37
44.35
45.12
45.79
46.39
46.94
47.41
47.78
48.03
48.07
47.80
47.11
45.89
44.11
41.80
39.08
36.12
33.09
30.17
27.48
25.05
22.86
20.81
18.84
16.87
14.90
12.93
10.94
8.89
6.70
4.33
1.80
-0.78
-3.31
-5.73
-8.06
-10.43
-13.02
-15.98
-19.34
-23.02
-26.84
-30.62
-34.22
-37.62
-40.92
-44.34
-48.17
-52.65
-57.79
-63.29
-68.38
-71.95
-72.82
-70.14
-63.66
-53.84
-41.76
-28.74
-16.01
-4.46
5.43
13.58
20.12
25.30
29.37
32.53
34.93
36.71
38.01
39.00
39.81
40.53
41.14
41.60
41.86
41.97
42.03
42.19
42.57
43.08
43.53
43.65
43.23
42.19
40.61
38.67
36.57
34.45
32.34
30.16
27.87
25.42
22.91
20.45
18.16
16.05
14.02
11.88
9.47
6.76
3.82
0.81
-2.12
-4.94
-7.74
-10.67
-13.88
-17.44
-21.29
-25.32
-29.37
-33.26
-36.84
-40.04
-42.91
-45.65
-48.59
-52.12
-56.44
-61.43
-66.47
-70.49
-72.27
-70.80
-65.65
-57.15
-46.32
-34.46
-22.81
-12.19
-2.93
4.98
11.73
17.45
22.21
26.06
29.08
31.41
33.25
34.74
35.89
36.66
37.02
36.98
36.65
36.18
35.70
35.25
34.76
34.14
33.27
32.11
30.68
29.06
27.35
25.67
24.09
22.66
21.40
20.28
19.25
18.26
17.25
16.21
15.08
13.78
12.21
10.26
7.93
5.29
2.50
-0.30
-3.00
-5.62
-8.24
-11.02
-14.10
-17.53
-21.28
-25.20
-29.09
-32.76
-36.11
-39.15
-42.05
-45.10
-48.65
-52.90
-57.72
-62.57
-66.52
-68.42
-67.29
-62.64
-54.67
-44.23
-32.56
-20.93
-10.29
-1.15
6.42
12.62
17.72
21.89
25.22
27.72
29.43
30.47
31.04
31.37
31.63
31.92
32.22
32.47
32.62
32.63
32.52
32.27
31.85
31.21
30.26
28.98
27.40
25.65
23.92
22.38
21.14
20.18
19.41
18.67
17.84
16.92
15.94
15.02
14.18
13.34
12.32
10.93
9.04
6.73
4.13
1.48
-1.13
-3.74
-6.46
-9.43
-12.69
-16.15
-19.62
-22.91
-25.87
-28.48
-30.86
-33.22
-35.83
-38.93
-42.63
-46.87
-51.32
-55.35
-58.14
-58.87
-56.90
-52.04
-44.58
-35.30
-25.19
-15.25
-6.23
1.51
7.94
13.23
17.60
21.13
23.85
25.69
26.65
26.91
26.74
26.52
26.52
26.91
27.62
28.48
29.30
29.99
30.56
31.14
31.75
32.33
32.69
32.59
31.86
30.53
28.78
26.87
24.96
23.06
21.05
18.82
16.33
13.71
11.11
8.67
6.37
4.10
1.74
-0.74
-3.24
-5.58
-7.65
-9.37
-10.88
-12.35
-14.01
-16.00
-18.42
-21.25
-24.39
-27.64
-30.76
-33.57
-35.96
-38.05
-40.16
-42.64
-45.83
-49.78
-54.16
-58.29
-61.23
-61.99
-59.93
-54.88
-47.23
-37.87
-27.84
-18.13
-9.40
-1.95
4.25
9.40
13.72
17.42
20.59
23.29
25.52
27.31
28.68
29.75
30.65
31.48
32.32
33.14
33.87
34.45
34.87
35.11
35.16
34.95
34.34
33.21
31.57
29.52
27.27
25.06
22.99
21.06
19.14
17.13
14.98
12.79
10.71
8.90
7.43
6.26
5.26
4.25
3.06
1.59
-0.19
-2.23
-4.46
-6.77
-9.11
-11.49
-13.99
-16.68
-19.59
-22.67
-25.81
-28.85
-31.63
-34.15
-36.47
-38.82
-41.43
-44.52
-48.13
-52.09
-55.89
-58.75
-59.81
-58.33
-54.01
-47.11
-38.41
-28.97
-19.79
-11.57
-4.61
1.15
5.94
10.00
13.47
16.40
18.84
20.84
22.52
24.00
25.37
26.68
27.89
28.94
29.76
30.34
30.70
30.89
30.92
30.79
30.44
29.86
29.08
28.16
27.17
26.13
25.00
23.71
22.19
20.44
18.52
16.50
14.50
12.63
10.95
9.48
8.16
6.86
5.39
3.65
1.62
-0.59
-2.81
-4.97
-7.09
-9.35
-11.97
-15.10
-18.67
-22.44
-26.02
-29.09
-31.48
-33.27
-34.70
-36.09
-37.76
-40.01
-42.96
-46.57
-50.57
-54.35
-57.08
-57.84
-55.92
-51.07
-43.65
-34.51
-24.77
-15.46
-7.25
-0.36
5.35
10.21
14.51
18.35
21.73
24.58
26.87
28.69
30.18
31.46
32.60
33.57
34.27
34.67
34.79
34.72
34.56
34.37
34.09
33.55
32.60
31.15
29.27
27.16
25.13
23.36
21.91
20.65
19.36
17.84
16.05
14.10
12.19
10.48
9.03
7.74
6.49
5.13
3.64
2.05
0.48
-0.97
-2.27
-3.50
-4.82
-6.47
-8.68
-11.57
-15.10
-19.07
-23.21
-27.27
-31.10
-34.67
-38.09
-41.54
-45.24
-49.39
-54.04
-58.94
-63.46
-66.67
-67.57
-65.48
-60.29
-52.56
-43.26
-33.52
-24.22
-15.82
-8.41
-1.85
3.98
9.09
13.36
16.63
18.81
19.99
20.45
20.56
20.65
20.91
21.32
21.75
22.06
22.23
22.34
22.50
22.76
23.00
23.05
22.71
21.90
20.72
19.36
18.00
16.75
15.63
14.54
13.39
12.09
10.61
8.98
7.31
5.73
4.36
3.23
2.30
1.38
0.32
-1.03
-2.64
-4.45
-6.33
-8.19
-10.04
-11.96
-14.00
-16.14
-18.26
-20.20
-21.84
-23.22
-24.50
-25.98
-27.95
-30.58
-33.79
-37.24
-40.32
-42.26
-42.29
-39.89
-34.89
-27.54
-18.51
-8.67
1.06
9.96
17.61
23.87
28.88
32.85
36.00
38.48
40.38
41.81
42.89
43.77
44.61
45.46
46.29
46.99
47.41
47.49
47.21
46.61
45.70
44.49
42.92
40.95
38.58
35.89
33.00
30.03
27.08
24.19
21.32
18.42
15.40
12.26
9.04
5.81
2.64
-0.44
-3.47
-6.56
-9.84
-13.42
-17.35
-21.53
-25.80
-29.86
-33.48
-36.56
-39.22
-41.73
-44.50
-47.88
-52.01
-56.74
-61.53
-65.55
-67.82
-67.49
-64.09
-57.73
-49.08
-39.19
-29.17
-19.88
-11.77
-4.89
1.00
6.19
10.90
15.14
18.83
21.85
24.16
25.87
27.16
28.18
29.01
29.59
29.85
29.80
29.58
29.38
29.39
29.60
29.84
29.77
29.16
27.88
26.05
23.91
21.72
19.65
17.75
15.97
14.23
12.43
10.51
8.44
6.20
3.86
1.50
-0.73
-2.73
-4.45
-5.94
-7.39
-8.98
-10.93
-13.31
-16.07
-19.03
-21.93
-24.58
-26.93
-29.14
-31.53
-34.46
-38.13
-42.49
-47.14
-51.41
-54.52
-55.75
-54.60
-50.90
-44.85
-37.01
-28.14
-19.12
-10.70
-3.38
2.70
7.73
12.06
16.00
19.70
23.06
25.89
28.00
29.39
30.19
30.67
31.03
31.37
31.65
31.79
31.72
31.43
30.96
30.34
29.53
28.48
27.13
25.47
23.55
21.45
19.26
17.05
14.87
12.74
10.70
8.77
6.99
5.32
3.70
2.06
0.36
-1.39
-3.11
-4.68
-6.00
-7.08
-8.06
-9.15
-10.58
-12.51
-14.92
-17.67
-20.59
-23.48
-26.17
-28.60
-30.76
-32.78
-34.89
-37.42
-40.56
-44.22
-47.84
-50.45
-50.96
-48.54
-42.98
-34.76
-24.90
-14.58
-4.80
3.83
11.11
17.18
22.28
26.60
30.25
33.19
35.32
36.53
36.84
36.38
35.36
34.08
32.74
31.53
30.56
29.88
29.54
29.51
29.68
29.89
29.92
29.57
28.70
27.32
25.57
23.70
21.97
20.57
19.46
18.46
17.27
15.58
13.26
10.38
7.19
3.98
1.00
-1.68
-4.10
-6.40
-8.74
-11.24
-13.98
-16.94
-20.06
-23.18
-26.11
-28.72
-31.03
-33.17
-35.48
-38.31
-41.88
-46.13
-50.60
-54.46
-56.74
-56.58
-53.51
-47.65
-39.65
-30.50
-21.22
-12.57
-4.95
1.63
7.33
12.39
16.89
20.77
23.90
26.14
27.48
28.08
28.19
28.16
28.21
28.45
28.83
29.25
29.61
29.86
30.00
30.02
29.83
29.33
28.36
26.90
25.02
22.88
20.73
18.65
16.69
14.75
12.73
10.59
8.38
6.22
4.21
2.41
0.76
-0.80
-2.31
-3.77
-5.11
-6.33
-7.55
-8.96
-10.79
-13.16
-16.05
-19.24
-22.42
-25.27
-27.63
-29.52
-31.14
-32.83
-34.96
-37.79
-41.42
-45.61
-49.79
-53.12
-54.68
-53.68
-49.80
-43.27
-34.88
-25.67
-16.68
-8.63
-1.82
3.80
8.48
12.48
15.94
18.91
21.37
23.31
24.78
25.85
26.66
27.31
27.82
28.24
28.53
28.72
28.82
28.86
28.83
28.64
28.17
27.32
26.06
24.42
22.52
20.45
18.31
16.17
14.09
12.13
10.32
8.64
7.06
5.52
3.98
2.45
0.92
-0.61
-2.15
-3.77
-5.45
-7.17
-8.87
-10.45
-11.89
-13.18
-14.43
-15.75
-17.30
-19.16
-21.39
-23.91
-26.56
-29.18
-31.71
-34.23
-37.01
-40.34
-44.36
-48.86
-53.23
-56.59
-58.02
-56.81
-52.75
-46.16
-37.78
-28.59
-19.51
-11.22
-4.03
2.00
7.01
11.17
14.66
17.57
20.01
22.04
23.76
25.25
26.54
27.69
28.74
29.78
30.87
32.07
33.42
34.88
36.37
37.77
38.94
39.75
40.10
39.96
39.30
38.21
36.75
35.03
33.16
31.21
29.19
27.08
24.81
22.38
19.80
17.19
14.72
12.54
10.68
9.06
7.45
5.57
3.21
0.33
-2.98
-6.45
-9.86
-13.06
-16.09
-19.10
-22.34
-26.05
-30.41
-35.52
-41.30
-47.35
-52.98
-57.28
-59.26
-58.29
-54.20
-47.49
-39.11
-30.12
-21.45
-13.66
-6.98
-1.34
3.36
7.27
10.53
13.26
15.65
17.82
19.85
21.73
23.40
24.84
26.05
27.12
28.13
29.14
30.09
30.88
31.40
31.59
31.49
31.14
30.56
29.72
28.56
27.07
25.36
23.62
22.04
20.69
19.48
18.21
16.68
14.76
12.46
9.89
7.22
4.60
2.15
-0.11
-2.20
-4.28
-6.54
-9.24
-12.51
-16.36
-20.63
-25.05
-29.38
-33.45
-37.21
-40.73
-44.17
-47.73
-51.62
-56.02
-60.89
-65.93
-70.40
-73.32
-73.64
-70.66
-64.29
-55.12
-44.29
-33.08
-22.61
-13.58
-6.15
-0.13
4.85
9.11
12.86
16.12
18.86
21.08
22.84
24.26
25.47
26.56
27.49
28.22
28.69
28.95
29.08
29.20
29.36
29.46
29.36
28.92
28.00
26.64
24.93
23.03
21.05
19.10
17.21
15.42
13.74
12.15
10.63
9.08
7.39
5.44
3.20
0.71
-1.90
-4.43
-6.74
-8.77
-10.55
-12.23
-14.01
-16.03
-18.30
-20.67
-22.90
-24.75
-26.16
-27.22
-28.23
-29.53
-31.46
-34.16
-37.58
-41.38
-44.95
-47.49
-48.09
-46.06
-41.07
-33.41
-23.86
-13.53
-3.49
5.47
12.95
18.94
23.58
27.07
29.57
31.25
32.25
32.78
33.09
33.38
33.79
34.34
34.95
35.52
35.96
36.25
36.42
36.56
36.70
36.77
36.59
35.98
34.80
33.07
31.02
28.97
27.20
25.79
24.67
23.60
22.39
20.93
19.27
17.56
15.94
14.48
13.13
11.80
10.37
8.74
6.84
4.66
2.23
-0.37
-3.06
-5.80
-8.62
-11.64
-15.05
-19.03
-23.64
-28.75
-33.92
-38.40
-41.33
-41.96
-39.90
-35.27
-28.72
-21.11
-13.34
-6.06
0.37
5.86
10.42
14.10
16.91
18.85
19.99
20.45
20.43
20.15
19.82
19.61
19.62
19.85
20.27
20.78
21.20
21.45
21.43
21.12
20.55
19.70
18.57
17.12
15.33
13.22
10.92
8.55
6.22
3.96
1.69
-0.67
-3.14
-5.65
-8.09
-10.40
-12.64
-14.97
-17.60
-20.64
-24.00
-27.41
-30.54
-33.20
-35.36
-37.27
-39.31
-41.85
-45.15
-49.17
-53.60
-57.76
-60.77
-61.71
-59.86
-54.95
-47.34
-37.86
-27.61
-17.59
-8.47
-0.47
6.51
12.71
18.34
23.46
28.03
31.99
35.32
38.08
40.37
42.24
43.71
44.74
45.34
45.62
45.81
46.20
47.03
48.39
50.13
51.90
53.23
53.80
53.49
52.49
51.26
50.32
50.01
50.38
51.16
51.95
52.42
52.48
52.31
52.27
52.69
53.90
56.05
59.17
62.96
66.61
68.76
67.71
61.90
50.55
33.96
13.43
-9.25
-32.38
-54.81
-75.84
-95.00
-111.66
-124.96
-134.04
-138.30
-137.77
-133.11
-125.40
-115.88
-105.66
-95.51
-85.81
-76.65
-67.91
-59.42
-51.13
-43.12
-35.58
-28.72
-22.64
-17.32
-12.63
-8.38
-4.44
-0.75
2.64
5.68
8.28
10.50
12.44
14.27
16.07
17.73
19.02
19.64
19.41
18.39
16.91
15.38
14.15
13.29
12.59
11.69
10.31
8.39
6.16
3.97
2.19
0.91
0.02
-0.76
-1.72
-3.01
-4.63
-6.42
-8.22
-9.95
-11.64
-13.43
-15.54
-18.16
-21.45
-25.42
-29.91
-34.53
-38.64
-41.43
-42.14
-40.24
-35.61
-28.63
-20.12
-11.06
-2.37
5.31
11.69
16.79
20.79
23.85
26.07
27.51
28.23
28.36
28.15
27.87
27.77
28.00
28.57
29.39
30.25
31.00
31.49
31.67
31.52
31.04
30.25
29.15
27.78
26.17
24.40
22.51
20.52
18.37
16.02
13.40
10.52
7.44
4.29
1.22
-1.66
-4.30
-6.76
-9.16
-11.64
-14.32
-17.18
-20.14
-23.06
-25.84
-28.47
-31.05
-33.80
-36.99
-40.83
-45.29
-50.04
-54.30
-57.07
-57.36
-54.52
-48.57
-40.15
-30.40
-20.52
-11.44
-3.68
2.72
7.97
12.37
16.20
19.64
22.82
25.83
28.70
31.38
33.79
35.78
37.24
38.13
38.47
38.36
38.00
37.55
37.11
36.68
36.17
35.42
34.33
32.84
30.98
28.86
26.63
24.38
22.21
20.15
18.24
16.42
14.65
12.81
10.80
8.56
6.13
3.63
1.22
-1.00
-3.04
-5.08
-7.37
-10.16
-13.50
-17.26
-21.08
-24.62
-27.64
-30.18
-32.49
-34.95
-37.93
-41.61
-45.97
-50.65
-55.03
-58.25
-59.42
-57.82
-53.18
-45.86
-36.75
-27.01
-17.74
-9.69
-3.10
2.17
6.50
10.26
13.70
16.88
19.71
22.06
23.80
24.91
25.48
25.66
25.63
25.56
25.52
25.52
25.53
25.47
25.29
24.93
24.33
23.43
22.21
20.64
18.74
16.57
14.26
11.95
9.80
7.94
6.36
5.01
3.78
2.56
1.34
0.13
-0.99
-1.99
-2.88
-3.68
-4.44
-5.24
-6.18
-7.38
-8.97
-11.05
-13.55
-16.33
-19.16
-21.91
-24.54
-27.18
-30.02
-33.22
-36.85
-40.85
-44.98
-48.81
-51.71
-52.96
-51.89
-48.10
-41.64
-33.05
-23.19
-13.06
-3.49
5.03
12.35
18.60
23.98
28.61
32.50
35.54
37.67
38.93
39.56
39.90
40.26
40.81
41.53
42.26
42.82
43.14
43.21
43.12
42.91
42.52
41.81
40.63
38.92
36.74
34.25
31.69
29.24
26.98
24.85
22.69
20.29
17.53
14.38
11.00
7.58
4.36
1.42
-1.30
-3.97
-6.81
-9.98
-13.51
-17.29
-21.14
-24.88
-28.42
-31.81
-35.16
-38.65
-42.46
-46.71
-51.44
-56.46
-61.33
-65.33
-67.58
-67.32
-64.16
-58.25
-50.28
-41.19
-31.97
-23.33
-15.61
-8.81
-2.75
2.79
7.92
12.59
16.70
20.08
22.66
24.45
25.60
26.30
26.77
27.14
27.49
27.89
28.35
28.89
29.51
30.12
30.64
30.88
30.74
30.11
29.00
27.48
25.71
23.85
22.02
20.23
18.40
16.40
14.16
11.73
9.22
6.79
4.55
2.47
0.51
-1.41
-3.31
-5.20
-7.15
-9.32
-11.86
-14.87
-18.29
-21.89
-25.38
-28.59
-31.52
-34.39
-37.53
-41.21
-45.55
-50.44
-55.53
-60.21
-63.67
-65.01
-63.53
-58.97
-51.68
-42.55
-32.75
-23.33
-14.95
-7.80
-1.70
3.64
8.44
12.74
16.46
19.48
21.72
23.24
24.17
24.74
25.15
25.59
26.11
26.72
27.35
27.91
28.33
28.53
28.48
28.17
27.58
26.77
25.77
24.61
23.34
21.97
20.53
19.04
17.56
16.10
14.65
13.15
11.52
9.70
7.68
5.49
3.25
1.05
-1.03
-2.98
-4.83
-6.71
-8.68
-10.78
-13.00
-15.25
-17.49
-19.70
-21.90
-24.14
-26.42
-28.76
-31.21
-33.89
-36.96
-40.54
-44.46
-48.27
-51.19
-52.31
-50.89
-46.60
-39.66
-30.80
-20.98
-11.18
-2.09
5.90
12.75
18.53
23.35
27.29
30.38
32.67
34.30
35.49
36.49
37.50
38.66
39.98
41.36
42.65
43.71
44.45
44.87
45.00
44.89
44.51
43.73
42.39
40.38
37.71
34.61
31.39
28.34
25.61
23.14
20.69
18.05
15.08
11.81
8.39
5.01
1.80
-1.19
-4.02
-6.85
-9.85
-13.15
-16.78
-20.61
-24.46
-28.12
-31.50
-34.61
-37.64
-40.84
-44.41
-48.52
-53.14
-58.05
-62.74
-66.49
-68.40
-67.74
-64.11
-57.68
-49.08
-39.27
-29.20
-19.61
-10.89
-3.16
3.63
9.54
14.63
18.91
22.42
25.19
27.30
28.88
30.03
30.95
31.78
32.64
33.61
34.64
35.67
36.55
37.20
37.52
37.49
37.05
36.17
34.87
33.21
31.29
29.29
27.36
25.60
24.00
22.49
21.01
19.48
17.88
16.21
14.45
12.58
10.54
8.35
6.00
3.54
0.94
-1.88
-5.03
-8.60
-12.56
-16.77
-20.98
-24.94
-28.49
-31.63
-34.52
-37.44
-40.71
-44.59
-49.21
-54.41
-59.66
-64.14
-66.81
-66.76
-63.44
-56.95
-48.01
-37.72
-27.27
-17.54
-9.02
-1.75
4.42
9.74
14.34
18.27
21.55
24.17
26.18
27.65
28.66
29.31
29.73
30.06
30.47
31.10
31.99
33.11
34.30
35.36
36.04
36.17
35.66
34.53
32.88
30.84
28.57
26.17
23.74
21.37
19.10
16.96
14.92
12.90
10.80
8.56
6.15
3.61
1.06
-1.38
-3.58
-5.48
-7.14
-8.68
-10.34
-12.33
-14.78
-17.64
-20.74
-23.79
-26.59
-29.01
-31.14
-33.20
-35.47
-38.27
-41.76
-45.86
-50.14
-53.82
-55.93
-55.56
-52.21
-45.94
-37.39
-27.57
-17.53
-8.08
0.37
7.74
14.11
19.57
24.15
27.80
30.55
32.52
33.93
34.99
35.91
36.83
37.77
38.71
39.61
40.39
40.95
41.24
41.21
40.89
40.33
39.58
38.55
37.11
35.12
32.57
29.59
26.43
23.33
20.41
17.61
14.72
11.53
8.00
4.29
0.74
-2.25
-4.43
-5.83
-6.77
-7.67
-8.98
-10.93
-13.50
-16.51
-19.64
-22.70
-25.55
-28.25
-30.94
-33.82
-37.14
-41.11
-45.74
-50.84
-55.85
-59.90
-61.98
-61.24
-57.24
-50.22
-41.03
-30.92
-21.10
-12.47
-5.32
0.54
5.54
10.06
14.24
17.95
20.95
23.11
24.50
25.40
26.14
26.98
28.01
29.16
30.29
31.26
32.02
32.57
32.94
33.14
33.11
32.76
32.00
30.80
29.22
27.40
25.57
23.87
22.37
21.04
19.74
18.34
16.77
15.02
13.13
11.12
8.95
6.55
3.86
0.89
-2.21
-5.24
-8.00
-10.45
-12.70
-14.99
-17.55
-20.48
-23.65
-26.79
-29.62
-31.99
-33.95
-35.76
-37.80
-40.40
-43.71
-47.65
-51.87
-55.72
-58.41
-59.15
-57.36
-52.86
-45.95
-37.37
-28.10
-19.09
-11.00
-4.20
1.35
5.88
9.69
13.00
15.95
18.56
20.80
22.67
24.23
25.55
26.74
27.86
28.93
29.91
30.79
31.57
32.28
32.96
33.59
34.08
34.26
33.99
33.19
31.93
30.34
28.60
26.86
25.15
23.46
21.72
19.85
17.87
15.80
13.76
11.86
10.17
8.70
7.32
5.86
4.10
1.92
-0.66
-3.50
-6.33
-8.90
-11.10
-12.98
-14.74
-16.62
-18.78
-21.18
-23.65
-25.96
-27.97
-29.75
-31.54
-33.68
-36.44
-39.94
-44.12
-48.74
-53.34
-57.28
-59.74
-59.93
-57.30
-51.80
-43.93
-34.66
-25.08
-16.07
-8.13
-1.35
4.42
9.41
13.74
17.47
20.59
23.09
25.00
26.38
27.36
28.05
28.55
28.94
29.26
29.51
29.66
29.69
29.58
29.30
28.83
28.10
27.01
25.54
23.71
21.65
19.57
17.67
16.07
14.76
13.62
12.47
11.19
9.74
8.20
6.72
5.42
4.37
3.51
2.68
1.70
0.41
-1.25
-3.24
-5.39
-7.49
-9.40
-11.09
-12.70
-14.43
-16.49
-18.98
-21.77
-24.61
-27.25
-29.53
-31.49
-33.34
-35.39
-37.90
-41.05
-44.78
-48.82
-52.62
-55.40
-56.33
-54.70
-50.22
-43.09
-34.02
-24.00
-14.06
-5.00
2.75
9.08
14.13
18.14
21.35
23.95
26.06
27.76
29.12
30.25
31.23
32.14
33.03
33.91
34.79
35.65
36.54
37.45
38.32
39.04
39.43
39.36
38.73
37.57
35.99
34.11
32.04
29.87
27.59
25.21
22.73
20.20
17.68
15.24
12.93
10.80
8.82
6.98
5.22
3.51
1.82
0.13
-1.57
-3.33
-5.21
-7.28
-9.64
-12.37
-15.47
-18.90
-22.49
-26.06
-29.41
-32.47
-35.35
-38.30
-41.68
-45.78
-50.56
-55.58
-59.99
-62.74
-62.92
-60.01
-54.11
-45.89
-36.34
-26.50
-17.21
-8.93
-1.82
4.22
9.38
13.84
17.73
21.13
24.07
26.56
28.62
30.22
31.37
32.07
32.36
32.36
32.25
32.21
32.34
32.63
32.91
32.95
32.52
31.50
29.94
27.94
25.67
23.26
20.78
18.22
15.61
12.97
10.35
7.87
5.61
3.61
1.85
0.23
-1.38
-3.08
-4.89
-6.76
-8.60
-10.29
-11.87
-13.43
-15.16
-17.27
-19.87
-22.98
-26.47
-30.13
-33.73
-37.07
-40.08
-42.79
-45.41
-48.23
-51.58
-55.58
-60.01
-64.19
-67.12
-67.75
-65.37
-59.87
-51.82
-42.24
-32.26
-22.78
-14.28
-6.83
-0.25
5.66
11.04
15.90
20.13
23.61
26.27
28.10
29.20
29.74
29.92
29.90
29.77
29.59
29.38
29.20
29.13
29.19
29.37
29.51
29.40
28.84
27.77
26.25
24.49
22.73
21.16
19.80
18.55
17.26
15.80
14.14
12.36
10.54
8.71
6.88
5.01
3.11
1.28
-0.38
-1.78
-2.98
-4.18
-5.63
-7.53
-9.89
-12.59
-15.33
-17.89
-20.12
-22.09
-23.97
-26.05
-28.58
-31.70
-35.35
-39.15
-42.44
-44.39
-44.15
-41.17
-35.34
-27.15
-17.49
-7.47
1.99
10.30
17.30
23.11
27.99
32.11
35.53
38.29
40.40
41.95
43.10
44.01
44.78
45.45
46.02
46.46
46.77
46.93
46.90
46.61
45.98
44.88
43.26
41.10
38.45
35.49
32.38
29.31
26.42
23.72
21.18
18.73
16.26
13.71
11.05
8.25
5.31
2.24
-1.00
-4.44
-8.11
-12.04
-16.21
-20.51
-24.83
-29.05
-33.18
-37.36
-41.83
-46.82
-52.35
-58.13
-63.46
-67.43
-69.12
-67.87
-63.57
-56.70
-48.18
-39.10
-30.37
-22.50
-15.55
-9.26
-3.35
2.38
7.87
12.93
17.31
20.83
23.49
25.42
26.84
27.95
28.91
29.79
30.58
31.28
31.91
32.50
33.07
33.52
33.69
33.33
32.27
30.50
28.20
25.72
23.36
21.28
19.45
17.64
15.59
13.18
10.45
7.63
5.03
2.81
1.03
-0.52
-2.13
-4.10
-6.63
-9.76
-13.35
-17.19
-21.07
-24.86
-28.51
-32.09
-35.71
-39.55
-43.80
-48.50
-53.50
-58.33
-62.21
-64.20
-63.52
-59.80
-53.27
-44.72
-35.22
-25.78
-17.09
-9.38
-2.57
3.57
9.25
14.51
19.28
23.41
26.76
29.27
31.01
32.13
32.84
33.34
33.72
34.01
34.18
34.22
34.17
34.09
34.06
34.10
34.07
33.76
32.90
31.31
28.97
26.08
23.00
20.06
17.48
15.23
13.10
10.82
8.20
5.25
2.15
-0.84
-3.52
-5.78
-7.67
-9.33
-10.91
-12.57
-14.47
-16.65
-19.14
-21.83
-24.61
-27.32
-29.86
-32.22
-34.48
-36.82
-39.48
-42.66
-46.39
-50.40
-54.05
-56.43
-56.62
-53.96
-48.36
-40.33
-30.80
-20.85
-11.37
-2.85
4.56
10.98
16.56
21.46
25.69
29.29
32.27
34.74
36.83
38.68
40.40
41.95
43.24
44.19
44.77
45.08
45.27
45.43
45.55
45.45
44.86
43.59
41.53
38.82
35.70
32.45
29.31
26.36
23.59
20.92
18.23
15.49
12.74
10.05
7.51
5.13
2.88
0.64
-1.75
-4.41
-7.41
-10.69
-14.13
-17.51
-20.68
-23.55
-26.21
-28.84
-31.71
-35.06
-39.04
-43.63
-48.63
-53.57
-57.77
-60.39
-60.68
-58.19
-53.00
-45.70
-37.24
-28.61
-20.56
-13.46
-7.28
-1.79
3.28
8.07
12.57
16.64
20.11
22.91
25.07
26.72
28.02
29.05
29.77
30.12
30.03
29.57
28.95
28.34
27.90
27.57
27.21
26.59
25.61
24.25
22.65
20.97
19.37
17.94
16.64
15.37
14.02
12.45
10.58
8.39
5.96
3.40
0.83
-1.67
-4.08
-6.44
-8.84
-11.38
-14.16
-17.24
-20.57
-24.00
-27.33
-30.33
-32.88
-35.00
-36.88
-38.84
-41.22
-44.26
-47.97
-51.99
-55.59
-57.86
-57.92
-55.26
-49.92
-42.46
-33.84
-25.04
-16.82
-9.58
-3.37
1.98
6.65
10.78
14.38
17.40
19.79
21.58
22.90
23.92
24.78
25.55
26.24
26.77
27.11
27.25
27.26
27.21
27.13
26.96
26.60
25.91
24.82
23.32
21.50
19.51
17.52
15.67
13.98
12.46
11.08
9.80
8.62
7.48
6.34
5.09
3.62
1.89
-0.11
-2.31
-4.60
-6.95
-9.39
-12.03
-14.96
-18.18
-21.57
-24.87
-27.80
-30.22
-32.14
-33.80
-35.49
-37.51
-39.99
-42.88
-45.86
-48.45
-50.02
-49.90
-47.56
-42.76
-35.67
-26.92
-17.41
-8.11
0.28
7.38
13.21
17.93
21.79
24.96
27.54
29.60
31.28
32.70
34.00
35.30
36.58
37.81
38.91
39.84
40.60
41.20
41.64
41.86
41.79
41.29
40.23
38.54
36.22
33.39
30.26
27.05
23.95
21.07
18.38
15.77
13.10
10.26
7.29
4.33
1.55
-0.97
-3.28
-5.56
-8.04
-10.92
-14.27
-18.00
-21.95
-25.92
-29.82
-33.66
-37.56
-41.71
-46.25
-51.27
-56.66
-62.15
-67.21
-71.14
-73.11
-72.39
-68.56
-61.68
-52.34
-41.51
-30.30
-19.67
-10.20
-2.05
4.86
10.74
15.71
19.79
22.88
24.93
25.94
26.07
25.60
24.89
24.24
23.90
23.96
24.37
25.03
25.76
26.39
26.78
26.82
26.42
25.51
24.03
21.99
19.50
16.77
14.05
11.55
9.38
7.50
5.76
3.99
2.08
0.04
-2.03
-3.99
-5.76
-7.37
-8.94
-10.62
-12.57
-14.85
-17.36
-19.95
-22.42
-24.66
-26.68
-28.66
-30.91
-33.79
-37.57
-42.32
-47.82
-53.55
-58.70
-62.33
-63.54
-61.74
-56.82
-49.18
-39.69
-29.39
-19.27
-10.02
-1.98
4.86
10.68
15.71
20.09
23.91
27.16
29.88
32.11
33.96
35.53
36.90
38.12
39.17
39.98
40.51
40.76
40.75
40.48
39.92
38.97
37.49
35.36
32.59
29.33
25.85
22.48
19.46
16.88
14.69
12.75
10.95
9.23
7.56
5.96
4.45
2.98
1.51
-0.08
-1.91
-4.11
-6.76
-9.77
-12.94
-15.99
-18.69
-21.00
-23.08
-25.26
-27.94
-31.41
-35.77
-40.84
-46.18
-51.07
-54.62
-55.96
-54.45
-49.88
-42.56
-33.26
-23.04
-12.94
-3.73
4.16
10.70
16.13
20.74
24.71
28.07
30.70
32.48
33.40
33.59
33.30
32.82
32.37
32.02
31.82
31.71
31.66
31.60
31.43
31.00
30.15
28.78
26.92
24.70
22.37
20.20
18.40
17.08
16.26
15.83
15.56
15.17
14.37
12.93
10.78
8.01
4.83
1.50
-1.79
-4.94
-8.01
-11.13
-14.47
-18.16
-22.27
-26.84
-31.76
-36.83
-41.61
-45.45
-47.61
-47.41
-44.48
-38.93
-31.35
-22.62
-13.68
-5.33
1.98
8.09
13.05
16.97
19.93
21.95
23.01
23.19
22.67
21.76
20.84
20.23
20.05
20.17
20.27
19.99
19.12
17.66
15.87
14.04
12.44
11.15
10.12
9.29
8.65
8.30
8.38
8.91
9.77
10.70
11.34
11.48
11.07
10.30
9.45
8.80
8.47
8.35
8.14
7.50
6.12
3.85
0.82
-2.62
-5.81
-7.96
-8.25
-6.05
-1.12
6.26
15.33
25.04
34.36
42.55
49.28
54.53
58.49
61.30
63.02
63.61
63.08
61.47
58.98
55.90
52.49
49.00
45.53
42.12
38.75
35.42
32.13
28.92
25.82
22.72
19.46
15.85
11.73
7.13
2.20
-2.79
-7.62
-12.17
-16.48
-20.66
-24.80
-28.89
-32.82
-36.43
-39.66
-42.57
-45.35
-48.26
-51.60
-55.55
-60.14
-65.18
-70.22
-74.52
-77.24
-77.59
-75.13
-69.89
-62.39
-53.53
-44.25
-35.25
-26.92
-19.27
-12.11
-5.25
1.38
7.67
13.35
18.15
21.87
24.45
26.01
26.77
26.98
26.84
26.55
26.22
25.92
25.74
25.68
25.71
25.68
25.42
24.76
23.58
21.88
19.77
17.45
15.12
12.91
10.89
9.00
7.13
5.13
2.86
0.21
-2.81
-6.16
-9.65
-13.15
-16.53
-19.81
-23.13
-26.76
-30.95
-35.84
-41.38
-47.26
-52.91
-57.60
-60.54
-61.04
-58.73
-53.66
-46.36
-37.67
-28.51
-19.65
-11.56
-4.35
2.09
7.91
13.16
17.80
21.70
24.78
27.05
28.67
29.78
30.56
31.06
31.29
31.29
31.12
30.92
30.81
30.83
30.87
30.68
29.98
28.58
26.46
23.81
20.94
18.19
15.81
13.87
12.28
10.84
9.34
7.66
5.80
3.88
2.07
0.51
-0.83
-2.10
-3.54
-5.44
-7.94
-11.08
-14.65
-18.40
-22.05
-25.43
-28.50
-31.42
-34.39
-37.65
-41.39
-45.62
-50.10
-54.28
-57.33
-58.36
-56.65
-52.01
-44.82
-36.00
-26.68
-17.85
-10.11
-3.57
1.97
6.82
11.19
15.13
18.53
21.28
23.31
24.68
25.55
26.11
26.57
26.97
27.33
27.56
27.61
27.51
27.27
26.94
26.44
25.64
24.34
22.43
19.93
17.02
13.96
10.98
8.20
5.63
3.19
0.81
-1.59
-4.08
-6.69
-9.51
-12.49
-15.58
-18.63
-21.52
-24.18
-26.69
-29.20
-31.96
-35.15
-38.76
-42.54
-45.97
-48.34
-48.93
-47.21
-43.03
-36.69
-28.89
-20.52
-12.41
-5.10
1.21
6.61
11.29
15.40
18.99
21.98
24.32
26.00
27.15
27.98
28.66
29.27
29.75
29.97
29.84
29.33
28.54
27.61
26.65
25.67
24.56
23.19
21.40
19.17
16.53
13.60
10.55
7.49
4.52
1.72
-0.88
-3.32
-5.76
-8.36
-11.26
-14.46
-17.79
-20.95
-23.70
-25.97
-27.94
-29.95
-32.38
-35.54
-39.52
-44.16
-49.08
-53.66
-57.15
-58.80
-58.01
-54.53
-48.53
-40.58
-31.47
-22.01
-12.94
-4.74
2.31
8.15
12.81
16.39
18.98
20.74
21.81
22.39
22.71
22.99
23.41
24.01
24.75
25.49
26.09
26.47
26.65
26.71
26.70
26.62
26.38
25.93
25.21
24.30
23.31
22.32
21.34
20.27
18.93
17.20
15.06
12.63
10.09
7.59
5.28
3.23
1.40
-0.25
-1.87
-3.65
-5.77
-8.31
-11.19
-14.15
-16.92
-19.30
-21.31
-23.19
-25.31
-27.97
-31.34
-35.29
-39.44
-43.18
-45.75
-46.43
-44.68
-40.28
-33.51
-25.03
-15.74
-6.54
1.90
9.24
15.43
20.54
24.68
27.87
30.14
31.53
32.24
32.52
32.63
32.79
33.02
33.25
33.31
33.15
32.79
32.35
31.98
31.72
31.48
31.01
30.09
28.52
26.27
23.45
20.30
17.09
14.08
11.45
9.23
7.33
5.54
3.67
1.59
-0.70
-3.06
-5.35
-7.43
-9.30
-11.04
-12.79
-14.78
-17.14
-19.95
-23.13
-26.49
-29.78
-32.81
-35.48
-37.85
-40.17
-42.80
-46.10
-50.32
-55.36
-60.76
-65.64
-68.89
-69.49
-66.83
-60.94
-52.48
-42.47
-32.01
-21.97
-12.86
-4.91
1.90
7.67
12.53
16.62
20.05
22.89
25.18
26.97
28.28
29.21
29.90
30.52
31.23
32.12
33.17
34.29
35.34
36.15
36.57
36.51
35.94
34.92
33.54
31.95
30.28
28.63
27.03
25.44
23.76
21.93
19.90
17.72
15.47
13.23
11.03
8.90
6.79
4.68
2.58
0.47
-1.66
-3.91
-6.43
-9.36
-12.74
-16.51
-20.46
-24.34
-27.90
-31.01
-33.65
-35.94
-38.16
-40.64
-43.74
-47.62
-52.11
-56.66
-60.30
-61.94
-60.72
-56.32
-49.04
-39.77
-29.65
-19.70
-10.64
-2.75
3.93
9.53
14.17
17.93
20.92
23.28
25.18
26.82
28.31
29.71
30.96
31.98
32.65
32.93
32.85
32.50
32.03
31.51
30.94
30.23
29.26
27.93
26.21
24.23
22.17
20.22
18.47
16.94
15.58
14.34
13.20
12.17
11.23
10.30
9.25
7.91
6.23
4.25
2.16
0.16
-1.58
-3.08
-4.46
-5.96
-7.79
-10.06
-12.72
-15.63
-18.60
-21.47
-24.14
-26.61
-28.97
-31.36
-33.95
-36.93
-40.39
-44.20
-47.95
-50.94
-52.29
-51.19
-47.17
-40.28
-31.12
-20.65
-9.92
0.19
9.13
16.68
22.85
27.74
31.49
34.18
35.94
36.96
37.50
37.85
38.27
38.90
39.67
40.42
40.94
41.12
40.96
40.58
40.10
39.54
38.81
37.74
36.20
34.11
31.55
28.69
25.75
22.93
20.32
17.93
15.69
13.51
11.32
9.08
6.77
4.37
1.86
-0.79
-3.55
-6.35
-9.03
-11.49
-13.67
-15.66
-17.61
-19.70
-22.06
-24.70
-27.52
-30.36
-33.04
-35.44
-37.61
-39.70
-42.01
-44.92
-48.64
-53.11
-57.86
-62.02
-64.51
-64.39
-61.12
-54.78
-46.08
-36.07
-25.86
-16.31
-7.84
-0.55
5.70
11.02
15.49
19.09
21.86
23.87
25.32
26.43
27.40
28.37
29.42
30.60
31.91
33.29
34.64
35.79
36.59
36.93
36.78
36.14
35.04
33.48
31.52
29.25
26.82
24.43
22.25
20.35
18.70
17.18
15.71
14.26
12.91
11.70
10.69
9.81
8.89
7.80
6.42
4.80
3.02
1.24
-0.48
-2.20
-4.10
-6.40
-9.27
-12.73
-16.64
-20.73
-24.71
-28.38
-31.67
-34.66
-37.56
-40.65
-44.20
-48.36
-53.04
-57.76
-61.69
-63.82
-63.23
-59.47
-52.72
-43.78
-33.76
-23.74
-14.50
-6.36
0.67
6.79
12.14
16.77
20.66
23.74
26.02
27.58
28.60
29.24
29.67
29.96
30.11
30.13
29.99
29.73
29.37
28.96
28.50
27.96
27.31
26.53
25.65
24.67
23.62
22.50
21.31
20.02
18.60
17.00
15.14
13.01
10.60
8.04
5.48
3.05
0.83
-1.22
-3.18
-5.11
-7.00
-8.77
-10.28
-11.49
-12.47
-13.40
-14.52
-16.02
-17.93
-20.15
-22.50
-24.76
-26.90
-28.99
-31.28
-34.04
-37.45
-41.50
-45.90
-50.02
-53.03
-54.02
-52.31
-47.64
-40.30
-31.07
-21.02
-11.18
-2.27
5.34
11.63
16.72
20.80
23.98
26.34
28.00
29.13
29.99
30.79
31.74
32.90
34.24
35.59
36.76
37.60
38.05
38.13
37.93
37.58
37.12
36.52
35.68
34.47
32.82
30.69
28.23
25.64
23.18
21.01
19.19
17.64
16.16
14.53
12.60
10.34
7.80
5.07
2.25
-0.64
-3.59
-6.65
-9.86
-13.24
-16.75
-20.32
-23.86
-27.23
-30.37
-33.26
-35.99
-38.76
-41.84
-45.48
-49.72
-54.27
-58.45
-61.33
-61.97
-59.70
-54.43
-46.70
-37.43
-27.69
-18.37
-10.02
-2.82
3.29
8.41
12.64
16.03
18.61
20.45
21.72
22.61
23.35
24.09
24.91
25.81
26.77
27.72
28.66
29.62
30.62
31.71
32.82
33.77
34.32
34.25
33.44
31.94
29.93
27.68
25.45
23.35
21.38
19.44
17.47
15.45
13.44
11.53
9.73
8.01
6.25
4.35
2.28
0.09
-2.14
-4.39
-6.73
-9.33
-12.32
-15.76
-19.49
-23.24
-26.72
-29.80
-32.53
-35.13
-37.96
-41.31
-45.39
-50.19
-55.45
-60.56
-64.69
-66.89
-66.33
-62.61
-55.89
-46.84
-36.52
-25.96
-16.06
-7.29
0.18
6.42
11.65
16.06
19.83
23.04
25.79
28.12
30.09
31.76
33.14
34.23
35.01
35.43
35.51
35.35
35.08
34.80
34.56
34.30
33.88
33.14
31.99
30.41
28.49
26.39
24.27
22.22
20.27
18.35
16.38
14.29
12.07
9.79
7.55
5.42
3.41
1.48
-0.47
-2.47
-4.57
-6.70
-8.81
-10.82
-12.76
-14.68
-16.69
-18.85
-21.16
-23.50
-25.71
-27.67
-29.37
-30.98
-32.80
-35.16
-38.33
-42.35
-46.98
-51.60
-55.33
-57.19
-56.38
-52.53
-45.87
-37.14
-27.36
-17.50
-8.27
-0.02
7.19
13.44
18.78
23.26
26.86
29.66
31.76
33.34
34.57
35.63
36.64
37.65
38.67
39.67
40.58
41.31
41.80
42.01
41.93
41.51
40.76
39.70
38.35
36.78
35.04
33.15
31.13
28.95
26.62
24.14
21.54
18.89
16.22
13.55
10.91
8.28
5.68
3.13
0.68
-1.64
-3.82
-5.91
-8.05
-10.44
-13.21
-16.46
-20.12
-24.01
-27.88
-31.51
-34.74
-37.53
-40.00
-42.37
-44.96
-48.08
-51.93
-56.38
-60.93
-64.67
-66.53
-65.57
-61.36
-54.12
-44.73
-34.40
-24.27
-15.12
-7.20
-0.40
5.63
11.17
16.31
20.96
24.97
28.22
30.74
32.68
34.22
35.48
36.46
37.08
37.29
37.11
36.68
36.17
35.67
35.17
34.54
33.59
32.24
30.51
28.53
26.53
24.65
22.97
21.44
19.95
18.37
16.63
14.79
12.95
11.24
9.69
8.26
6.83
5.25
3.43
1.36
-0.88
-3.14
-5.31
-7.31
-9.22
-11.23
-13.53
-16.28
-19.49
-22.99
-26.50
-29.81
-32.86
-35.79
-38.90
-42.48
-46.67
-51.43
-56.43
-61.11
-64.71
-66.35
-65.30
-61.17
-54.07
-44.68
-34.03
-23.26
-13.28
-4.60
2.67
8.74
13.90
18.42
22.39
25.80
28.57
30.68
32.21
33.36
34.34
35.27
36.13
36.78
37.07
36.96
36.55
36.04
35.54
35.00
34.29
33.23
31.75
29.94
27.98
26.07
24.32
22.71
21.15
19.51
17.74
15.83
13.82
11.79
9.76
7.72
5.59
3.28
0.73
-2.01
-4.81
-7.49
-9.89
-11.99
-13.91
-15.87
-18.06
-20.58
-23.40
-26.33
-29.15
-31.70
-33.90
-35.89
-37.89
-40.23
-43.17
-46.83
-51.04
-55.32
-58.91
-60.89
-60.45
-57.12
-50.96
-42.50
-32.70
-22.57
-13.02
-4.58
2.58
8.52
13.41
17.43
20.65
23.14
25.01
26.38
27.43
28.32
29.17
29.98
30.75
31.42
32.01
32.59
33.18
33.81
34.42
34.86
35.01
34.79
34.21
33.32
32.22
31.03
29.79
28.56
27.35
26.12
24.79
23.26
21.46
19.37
17.10
14.82
12.70
10.84
9.22
7.72
6.15
4.38
2.28
-0.21
-3.11
-6.36
-9.87
-13.46
-16.96
-20.28
-23.42
-26.57
-30.00
-33.98
-38.63
-43.91
-49.42
-54.53
-58.36
-60.03
-58.87
-54.66
-47.74
-38.96
-29.39
-20.03
-11.54
-4.19
2.06
7.39
11.96
15.81
18.97
21.46
23.38
24.88
26.12
27.21
28.28
29.34
30.40
31.41
32.30
32.99
33.39
33.45
33.14
32.44
31.34
29.86
28.11
26.24
24.41
22.75
21.34
20.13
19.02
17.85
16.52
14.99
13.27
11.40
9.43
7.35
5.14
2.80
0.36
-2.09
-4.45
-6.67
-8.77
-10.91
-13.28
-16.04
-19.24
-22.75
-26.38
-29.92
-33.24
-36.35
-39.43
-42.69
-46.37
-50.58
-55.22
-59.87
-63.83
-66.22
-66.20
-63.26
-57.41
-49.19
-39.53
-29.45
-19.81
-11.12
-3.58
2.88
8.38
13.07
17.02
20.27
22.87
24.89
26.45
27.71
28.82
29.85
30.82
31.70
32.44
33.06
33.61
34.15
34.69
35.16
35.42
35.28
34.58
33.27
31.42
29.19
26.79
24.41
22.13
19.98
17.92
15.91
13.94
12.03
10.16
8.29
6.34
4.27
2.04
-0.25
-2.51
-4.65
-6.64
-8.54
-10.48
-12.61
-15.04
-17.79
-20.78
-23.87
-26.86
-29.65
-32.16
-34.46
-36.70
-39.12
-41.96
-45.44
-49.61
-54.18
-58.49
-61.57
-62.39
-60.23
-54.98
-47.15
-37.73
-27.84
-18.41
-9.99
-2.76
3.38
8.65
13.24
17.31
20.91
24.05
26.69
28.84
30.52
31.85
32.96
33.96
34.90
35.77
36.57
37.31
37.99
38.57
38.95
39.01
38.59
37.65
36.17
34.28
32.13
29.88
27.67
25.58
23.60
21.68
19.74
17.71
15.54
13.23
10.83
8.43
6.16
4.15
2.47
1.08
-0.21
-1.65
-3.49
-5.86
-8.68
-11.75
-14.82
-17.74
-20.47
-23.16
-25.98
-29.13
-32.81
-37.12
-42.09
-47.49
-52.82
-57.27
-59.91
-59.93
-56.94
-51.11
-43.15
-34.06
-24.88
-16.36
-8.84
-2.35
3.34
8.42
13.04
17.17
20.71
23.54
25.67
27.21
28.40
29.47
30.54
31.61
32.56
33.27
33.69
33.82
33.77
33.58
33.23
32.65
31.75
30.49
28.94
27.16
25.24
23.16
20.94
18.56
16.11
13.72
11.54
9.68
8.10
6.71
5.36
3.93
2.39
0.75
-0.94
-2.70
-4.57
-6.63
-8.95
-11.55
-14.42
-17.49
-20.73
-24.07
-27.48
-30.94
-34.44
-37.98
-41.68
-45.65
-50.03
-54.80
-59.65
-63.98
-66.94
-67.65
-65.54
-60.56
-53.20
-44.38
-35.04
-25.97
-17.57
-9.92
-2.95
3.43
9.22
14.39
18.90
22.75
25.96
28.57
30.63
32.21
33.42
34.35
35.13
35.78
36.29
36.61
36.71
36.57
36.15
35.39
34.18
32.48
30.31
27.81
25.18
22.63
20.25
18.06
16.00
14.01
12.09
10.29
8.67
7.26
6.06
4.97
3.95
2.91
1.84
0.71
-0.50
-1.81
-3.30
-5.05
-7.12
-9.57
-12.42
-15.62
-19.07
-22.65
-26.21
-29.67
-33.03
-36.43
-40.06
-44.13
-48.72
-53.67
-58.47
-62.35
-64.39
-63.83
-60.22
-53.71
-44.97
-34.99
-24.85
-15.37
-6.96
0.30
6.59
12.09
16.84
20.82
23.97
26.30
28.02
29.44
30.82
32.31
33.87
35.33
36.53
37.43
38.09
38.65
39.23
39.81
40.24
40.34
39.92
38.93
37.44
35.62
33.64
31.66
29.74
27.87
26.00
24.08
22.10
20.04
17.94
15.79
13.63
11.45
9.28
7.11
4.90
2.56
-0.01
-2.88
-6.07
-9.53
-13.11
-16.67
-20.11
-23.40
-26.64
-30.03
-33.82
-38.22
-43.27
-48.66
-53.78
-57.74
-59.66
-58.94
-55.44
-49.56
-42.06
-33.84
-25.65
-17.94
-10.86
-4.32
1.79
7.53
12.78
17.36
21.12
24.04
26.21
27.88
29.31
30.68
32.05
33.42
34.71
35.86
36.76
37.37
37.62
37.49
36.93
35.94
34.53
32.73
30.61
28.27
25.87
23.49
21.19
18.95
16.69
14.33
11.82
9.15
6.38
3.58
0.83
-1.74
-4.03
-5.99
-7.67
-9.24
-10.96
-13.06
-15.66
-18.71
-22.00
-25.29
-28.36
-31.15
-33.76
-36.39
-39.34
-42.92
-47.28
-52.34
-57.68
-62.51
-65.84
-66.75
-64.68
-59.65
-52.24
-43.36
-34.04
-25.03
-16.79
-9.44
-2.88
3.04
8.50
13.58
18.29
22.57
26.32
29.41
31.76
33.37
34.35
34.81
34.94
34.90
34.77
34.68
34.70
34.88
35.20
35.55
35.76
35.60
34.93
33.69
31.96
29.91
27.77
25.69
23.76
21.96
20.26
18.60
16.95
15.27
13.51
11.60
9.42
6.91
4.09
1.07
-1.99
-4.97
-7.86
-10.78
-13.90
-17.40
-21.28
-25.40
-29.49
-33.30
-36.66
-39.66
-42.54
-45.69
-49.46
-53.94
-58.92
-63.77
-67.53
-69.16
-67.87
-63.35
-55.95
-46.58
-36.35
-26.32
-17.18
-9.17
-2.26
3.74
8.98
13.52
17.37
20.59
23.29
25.62
27.72
29.67
31.45
33.04
34.39
35.50
36.40
37.18
37.83
38.30
38.47
38.21
37.48
36.30
34.76
33.00
31.13
29.23
27.34
25.48
23.65
21.80
19.88
17.86
15.70
13.44
11.14
8.87
6.70
4.65
2.76
0.98
-0.73
-2.47
-4.31
-6.29
-8.38
-10.46
-12.45
-14.27
-15.99
-17.73
-19.74
-22.25
-25.42
-29.32
-33.82
-38.57
-42.96
-46.21
-47.53
-46.34
-42.47
-36.25
-28.45
-20.02
-11.83
-4.42
2.03
7.57
12.33
16.35
19.63
22.15
23.98
25.31
26.42
27.52
28.71
29.95
31.12
32.11
32.89
33.47
33.90
34.15
34.14
33.74
32.84
31.39
29.44
27.13
24.60
22.01
19.48
17.08
14.87
12.89
11.10
9.41
7.68
5.77
3.62
1.25
-1.18
-3.51
-5.64
-7.63
-9.65
-11.93
-14.62
-17.75
-21.17
-24.68
-28.04
-31.10
-33.84
-36.35
-38.85
-41.60
-44.88
-48.86
-53.53
-58.50
-63.03
-66.14
-66.83
-64.43
-58.82
-50.54
-40.58
-30.08
-20.04
-11.07
-3.35
3.23
8.91
13.89
18.29
22.13
25.41
28.16
30.42
32.29
33.86
35.18
36.23
36.95
37.30
37.33
37.18
37.02
36.94
36.89
36.69
36.08
34.91
33.14
30.91
28.43
25.90
23.42
21.02
18.68
16.40
14.19
12.07
9.99
7.87
5.60
3.16
0.57
-2.00
-4.40
-6.50
-8.34
-10.06
-11.94
-14.18
-16.91
-20.07
-23.43
-26.76
-29.85
-32.65
-35.30
-38.07
-41.28
-45.19
-49.90
-55.14
-60.29
-64.39
-66.41
-65.47
-61.24
-54.01
-44.69
-34.49
-24.50
-15.49
-7.70
-1.01
4.83
10.01
14.55
18.38
21.43
23.66
25.23
26.35
27.23
28.00
28.68
29.20
29.45
29.42
29.19
28.86
28.57
28.36
28.12
27.72
27.01
25.95
24.61
23.16
21.79
20.61
19.68
18.93
18.25
17.51
16.57
15.32
13.71
11.74
9.44
6.91
4.25
1.52
-1.23
-4.00
-6.82
-9.69
-12.62
-15.53
-18.35
-21.02
-23.46
-25.64
-27.62
-29.48
-31.40
-33.63
-36.39
-39.84
-43.91
-48.19
-51.96
-54.31
-54.41
-51.81
-46.49
-38.95
-29.94
-20.29
-10.71
-1.71
6.38
13.40
19.29
24.08
27.88
30.88
33.24
35.12
36.60
37.76
38.67
39.41
40.04
40.59
41.05
41.36
41.49
41.45
41.24
40.85
40.24
39.25
37.74
35.64
33.00
30.04
27.07
24.35
21.98
19.87
17.79
15.50
12.88
9.98
7.02
4.24
1.77
-0.40
-2.40
-4.46
-6.78
-9.48
-12.58
-16.00
-19.61
-23.28
-26.99
-30.75
-34.66
-38.88
-43.53
-48.66
-54.13
-59.51
-64.12
-67.09
-67.56
-65.02
-59.44
-51.40
-41.89
-32.03
-22.73
-14.50
-7.43
-1.31
4.14
9.08
13.57
17.52
20.86
23.55
25.63
27.18
28.31
29.11
29.70
30.19
30.69
31.27
31.98
32.74
33.44
33.90
33.99
33.59
32.64
31.18
29.33
27.26
25.16
23.16
21.29
19.48
17.59
15.46
13.02
10.26
7.26
4.17
1.15
-1.70
-4.35
-6.87
-9.44
-12.24
-15.41
-18.96
-22.72
-26.41
-29.76
-32.66
-35.19
-37.61
-40.27
-43.52
-47.59
-52.47
-57.80
-62.90
-66.80
-68.51
-67.24
-62.74
-55.38
-46.09
-36.03
-26.29
-17.53
-9.98
-3.48
2.27
7.54
12.47
17.06
21.20
24.80
27.78
30.12
31.84
33.01
33.77
34.24
34.57
34.86
35.13
35.36
35.52
35.54
35.37
34.96
34.25
33.16
31.60
29.58
27.22
24.74
22.36
20.21
18.28
16.37
14.29
11.88
9.12
6.18
3.28
0.63
-1.66
-3.63
-5.40
-7.14
-9.01
-11.13
-13.60
-16.46
-19.69
-23.12
-26.55
-29.75
-32.54
-34.90
-37.03
-39.26
-41.96
-45.38
-49.45
-53.68
-57.26
-59.22
-58.72
-55.36
-49.23
-40.92
-31.30
-21.30
-11.66
-2.84
4.94
11.71
17.51
22.45
26.58
29.88
32.43
34.33
35.79
37.03
38.26
39.55
40.88
42.14
43.25
44.16
44.86
45.33
45.49
45.20
44.35
42.88
40.86
38.46
35.90
33.38
31.06
28.95
26.98
25.00
22.85
20.47
17.89
15.24
12.67
10.27
8.03
5.85
3.58
1.02
-1.90
-5.22
-8.85
-12.63
-16.42
-20.11
-23.71
-27.35
-31.25
-35.63
-40.61
-46.16
-52.00
-57.58
-62.14
-64.81
-64.85
-61.84
-55.83
-47.38
-37.40
-26.92
-16.81
-7.65
0.36
7.26
13.19
18.30
22.61
26.08
28.73
30.66
32.07
33.25
34.36
35.46
36.45
37.15
37.46
37.45
37.25
37.02
36.82
36.55
36.04
35.11
33.73
31.93
29.81
27.50
25.08
22.62
20.23
18.00
16.04
14.34
12.75
11.05
9.00
6.47
3.50
0.27
-2.97
-6.05
-8.94
-11.73
-14.63
-17.81
-21.32
-25.08
-28.90
-32.55
-35.90
-38.94
-41.82
-44.76
-48.02
-51.78
-56.01
-60.41
-64.38
-67.07
-67.59
-65.28
-59.93
-51.96
-42.22
-31.83
-21.76
-12.65
-4.71
2.15
8.11
13.36
17.95
21.90
25.23
28.00
30.30
32.24
33.88
35.24
36.30
37.06
37.55
37.87
38.10
38.30
38.50
38.67
38.70
38.47
37.86
36.80
35.24
33.24
30.93
28.44
25.92
23.44
20.97
18.42
15.69
12.75
9.64
6.51
3.51
0.77
-1.71
-3.97
-6.15
-8.44
-10.95
-13.82
-17.05
-20.59
-24.27
-27.88
-31.21
-34.20
-36.91
-39.55
-42.40
-45.69
-49.57
-53.95
-58.52
-62.68
-65.62
-66.47
-64.53
-59.54
-51.77
-42.06
-31.50
-21.16
-11.81
-3.77
2.99
8.67
13.45
17.40
20.52
22.83
24.43
25.54
26.44
27.35
28.39
29.51
30.58
31.48
32.09
32.43
32.54
32.44
32.16
31.64
30.83
29.70
28.27
26.61
24.80
22.96
21.17
19.48
17.89
16.35
14.77
13.10
11.29
9.36
7.38
5.41
3.52
1.75
0.10
-1.46
-2.98
-4.57
-6.28
-8.16
-10.19
-12.33
-14.52
-16.72
-18.96
-21.29
-23.86
-26.80
-30.21
-34.12
-38.32
-42.37
-45.55
-46.99
-45.95
-42.09
-35.55
-27.00
-17.36
-7.55
1.73
10.12
17.52
23.89
29.19
33.34
36.28
38.07
38.96
39.34
39.61
40.02
40.61
41.19
41.49
41.27
40.47
39.26
37.87
36.48
35.14
33.69
31.92
29.68
27.00
24.11
21.34
18.91
16.90
15.14
13.36
11.30
8.84
6.04
3.09
0.25
-2.32
-4.63
-6.80
-9.09
-11.74
-14.89
-18.53
-22.55
-26.73
-30.87
-34.81
-38.49
-41.94
-45.31
-48.81
-52.68
-57.04
-61.75
-66.32
-69.92
-71.60
-70.55
-66.39
-59.29
-49.99
-39.52
-28.95
-19.10
-10.39
-2.83
3.77
9.65
14.96
19.67
23.64
26.78
29.07
30.69
31.90
32.91
33.82
34.60
35.15
35.45
35.58
35.67
35.83
36.05
36.16
35.93
35.15
33.72
31.67
29.16
26.38
23.55
20.82
18.26
15.87
13.53
11.08
8.41
5.51
2.46
-0.52
-3.24
-5.55
-7.48
-9.19
-10.92
-12.93
-15.37
-18.25
-21.47
-24.81
-28.15
-31.39
-34.59
-37.88
-41.46
-45.51
-50.13
-55.20
-60.36
-64.92
-67.95
-68.56
-66.08
-60.39
-51.96
-41.75
-30.92
-20.45
-11.00
-2.76
4.38
10.63
16.11
20.84
24.73
27.70
29.78
31.06
31.76
32.05
32.04
31.79
31.35
30.76
30.11
29.49
28.98
28.59
28.24
27.76
26.97
25.78
24.18
22.32
20.41
18.66
17.19
15.97
14.92
13.87
12.72
11.35
9.73
7.84
5.70
3.41
1.10
-1.08
-3.06
-4.92
-6.87
-9.14
-11.91
-15.15
-18.65
-22.12
-25.29
-28.04
-30.42
-32.63
-34.89
-37.42
-40.34
-43.69
-47.33
-50.91
-53.86
-55.42
-54.77
-51.39
-45.14
-36.48
-26.34
-15.83
-5.93
2.76
10.03
16.01
20.89
24.79
27.78
29.86
31.18
31.98
32.55
33.14
33.83
34.55
35.17
35.60
35.88
36.13
36.48
36.94
37.43
37.72
37.58
36.86
35.53
33.69
31.54
29.25
26.95
24.68
22.41
20.10
17.66
15.04
12.22
9.21
6.08
2.93
-0.15
-3.10
-5.99
-8.94
-12.13
-15.61
-19.36
-23.17
-26.86
-30.29
-33.51
-36.70
-40.15
-44.09
-48.60
-53.50
-58.32
-62.32
-64.63
-64.48
-61.47
-55.60
-47.41
-37.73
-27.50
-17.55
-8.46
-0.53
6.19
11.76
16.34
20.12
23.25
25.83
27.96
29.67
31.01
32.07
32.91
33.64
34.30
34.93
35.54
36.14
36.68
37.11
37.31
37.11
36.40
35.08
33.14
30.66
27.83
24.84
21.89
19.11
16.51
14.07
11.71
9.36
7.02
4.72
2.54
0.52
-1.35
-3.16
-5.08
-7.27
-9.88
-12.98
-16.52
-20.36
-24.31
-28.15
-31.79
-35.23
-38.60
-42.11
-45.97
-50.33
-55.18
-60.27
-65.06
-68.74
-70.37
-69.21
-64.90
-57.68
-48.34
-37.96
-27.60
-18.02
-9.57
-2.21
4.24
10.04
15.30
20.02
24.13
27.54
30.19
32.15
33.60
34.75
35.77
36.71
37.47
37.94
38.04
37.84
37.50
37.17
36.87
36.52
35.92
34.92
33.48
31.68
29.65
27.47
25.16
22.68
20.02
17.23
14.43
11.77
9.35
7.17
5.13
3.14
1.09
-1.04
-3.17
-5.21
-7.07
-8.76
-10.40
-12.23
-14.51
-17.40
-20.84
-24.62
-28.33
-31.61
-34.27
-36.41
-38.43
-40.87
-44.13
-48.27
-52.75
-56.57
-58.49
-57.42
-52.71
-44.42
-33.27
-20.53
-7.80
3.39
11.83
16.96
18.94
18.59
17.14
15.92
15.99
17.89
21.59
26.56
31.95
36.89
40.72
43.17
44.36
44.66
44.50
44.22
43.88
43.43
42.75
41.77
40.45
38.72
36.53
33.82
30.68
27.32
24.08
21.26
19.02
17.31
15.90
14.53
12.99
11.19
9.17
7.02
4.77
2.42
-0.13
-3.02
-6.33
-10.02
-13.91
-17.78
-21.43
-24.75
-27.82
-30.86
-34.17
-38.02
-42.54
-47.63
-52.87
-57.56
-60.80
-61.70
-59.67
-54.65
-47.14
-38.06
-28.43
-19.11
-10.56
-2.93
3.86
9.90
15.14
19.50
22.82
25.10
26.49
27.27
27.80
28.37
29.14
30.14
31.29
32.47
33.59
34.58
35.39
35.94
36.16
35.93
35.15
33.75
31.72
29.18
26.33
23.42
20.69
18.24
16.05
13.99
11.90
9.65
7.22
4.66
2.06
-0.50
-3.00
-5.43
-7.82
-10.25
-12.81
-15.62
-18.74
-22.16
-25.71
-29.21
-32.46
-35.39
-38.06
-40.72
-43.66
-47.14
-51.29
-55.96
-60.71
-64.76
-67.18
-67.11
-64.05
-58.02
-49.62
-39.82
-29.63
-19.90
-11.09
-3.32
3.51
9.54
14.87
19.48
23.37
26.52
29.01
30.98
32.56
33.83
34.86
35.65
36.25
36.69
37.06
37.40
37.71
37.89
37.81
37.33
36.38
34.95
33.10
30.89
28.43
25.81
23.13
20.50
17.97
15.53
13.15
10.76
8.29
5.75
3.18
0.69
-1.61
-3.69
-5.58
-7.43
-9.42
-11.74
-14.48
-17.60
-20.91
-24.17
-27.23
-30.00
-32.56
-35.12
-37.92
-41.22
-45.20
-49.87
-54.95
-59.80
-63.46
-64.94
-63.48
-58.87
-51.52
-42.34
-32.43
-22.76
-13.97
-6.32
0.17
5.63
10.13
13.73
16.49
18.48
19.89
20.92
21.76
22.56
23.37
24.22
25.11
26.07
27.14
28.30
29.52
30.63
31.50
31.96
31.90
31.29
30.14
28.55
26.68
24.72
22.90
21.33
20.00
18.69
17.17
15.20
12.74
9.92
7.03
4.32
1.94
-0.17
-2.23
-4.45
-6.98
-9.76
-12.59
-15.22
-17.46
-19.31
-20.88
-22.46
-24.31
-26.61
-29.46
-32.85
-36.56
-40.20
-43.14
-44.66
-44.01
-40.76
-34.90
-26.95
-17.77
-8.33
0.54
8.35
14.95
20.41
24.83
28.30
30.85
32.53
33.49
33.96
34.27
34.64
35.18
35.83
36.42
36.77
36.80
36.50
35.98
35.34
34.56
33.61
32.38
30.80
28.93
26.84
24.68
22.53
20.37
18.10
15.56
12.67
9.45
6.07
2.72
-0.40
-3.26
-6.01
-8.89
-12.11
-15.76
-19.74
-23.76
-27.56
-30.94
-33.93
-36.73
-39.68
-43.12
-47.24
-52.06
-57.22
-62.06
-65.63
-67.00
-65.48
-60.87
-53.54
-44.31
-34.17
-24.05
-14.59
-6.11
1.30
7.70
13.19
17.83
21.64
24.67
26.99
28.69
29.89
30.72
31.31
31.75
32.09
32.42
32.80
33.29
33.87
34.42
34.72
34.50
33.59
31.96
29.71
27.05
24.24
21.47
18.81
16.26
13.70
11.01
8.12
5.06
1.97
-0.98
-3.69
-6.18
-8.64
-11.32
-14.40
-17.92
-21.73
-25.62
-29.35
-32.76
-35.83
-38.62
-41.33
-44.21
-47.56
-51.58
-56.20
-60.96
-64.96
-67.11
-66.50
-62.66
-55.82
-46.77
-36.59
-26.30
-16.61
-7.89
-0.24
6.40
12.13
17.03
21.21
24.74
27.66
30.01
31.79
33.00
33.76
34.15
34.32
34.36
34.35
34.32
34.28
34.26
34.27
34.24
34.04
33.49
32.42
30.78
28.66
26.29
23.97
21.93
20.28
18.93
17.65
16.17
14.30
12.00
9.39
6.67
4.00
1.48
-0.91
-3.28
-5.75
-8.38
-11.22
-14.27
-17.52
-20.94
-24.49
-28.07
-31.57
-34.89
-38.06
-41.28
-44.84
-49.02
-53.77
-58.66
-62.79
-65.09
-64.61
-60.88
-54.08
-44.94
-34.49
-23.74
-13.43
-4.00
4.39
11.71
18.00
23.28
27.59
31.03
33.67
35.64
37.10
38.18
39.05
39.83
40.60
41.32
41.93
42.31
42.39
42.16
41.70
41.04
40.20
39.12
37.74
36.01
34.00
31.86
29.75
27.80
25.99
24.22
22.29
20.06
17.50
14.71
11.86
9.15
6.70
4.47
2.33
0.02
-2.71
-5.97
-9.73
-13.77
-17.83
-21.65
-25.17
-28.46
-31.75
-35.33
-39.43
-44.17
-49.43
-54.84
-59.72
-63.23
-64.48
-62.81
-58.01
-50.42
-40.87
-30.41
-20.05
-10.47
-2.00
5.38
11.83
17.52
22.52
26.84
30.44
33.28
35.41
36.91
37.91
38.57
39.03
39.40
39.73
40.05
40.31
40.46
40.39
40.03
39.32
38.22
36.70
34.76
32.46
29.89
27.14
24.34
21.56
18.86
16.27
13.79
11.41
9.11
6.86
4.65
2.46
0.31
-1.74
-3.63
-5.41
-7.13
-8.92
-10.98
-13.38
-16.17
-19.24
-22.48
-25.76
-29.01
-32.25
-35.55
-39.02
-42.83
-47.12
-52.02
-57.49
-63.22
-68.51
-72.44
-73.99
-72.40
-67.41
-59.38
-49.19
-37.95
-26.72
-16.23
-6.86
1.37
8.54
14.76
20.05
24.42
27.89
30.58
32.65
34.24
35.43
36.22
36.58
36.55
36.26
35.91
35.67
35.60
35.62
35.53
35.14
34.36
33.20
31.78
30.21
28.57
26.84
24.97
22.94
20.75
18.46
16.15
13.86
11.61
9.37
7.09
4.73
2.30
-0.15
-2.56
-4.85
-6.97
-8.96
-10.96
-13.15
-15.69
-18.64
-21.97
-25.51
-29.04
-32.39
-35.50
-38.41
-41.26
-44.23
-47.50
-51.18
-55.25
-59.43
-63.16
-65.63
-66.00
-63.64
-58.38
-50.56
-41.00
-30.68
-20.51
-11.15
-2.94
4.07
9.97
14.90
18.97
22.30
25.00
27.20
29.08
30.79
32.45
34.13
35.74
37.19
38.33
39.11
39.54
39.70
39.64
39.40
38.95
38.21
37.10
35.65
33.92
32.06
30.25
28.63
27.31
26.24
25.29
24.23
22.81
20.91
18.55
15.91
13.28
10.89
8.83
7.02
5.23
3.23
0.83
-2.01
-5.21
-8.62
-12.09
-15.50
-18.83
-22.10
-25.40
-28.81
-32.48
-36.52
-40.99
-45.77
-50.39
-54.12
-56.03
-55.38
-51.80
-45.57
-37.47
-28.54
-19.72
-11.65
-4.56
1.63
7.09
11.97
16.28
19.98
23.02
25.40
27.22
28.64
29.82
30.90
31.92
32.84
33.60
34.13
34.43
34.52
34.37
33.98
33.27
32.16
30.61
28.66
26.42
24.02
21.60
19.23
16.98
14.85
12.86
10.98
9.22
7.56
5.93
4.27
2.52
0.62
-1.40
-3.53
-5.68
-7.86
-10.10
-12.50
-15.18
-18.21
-21.58
-25.18
-28.86
-32.48
-35.93
-39.25
-42.58
-46.15
-50.22
-54.91
-60.11
-65.35
-69.80
-72.47
-72.47
-69.30
-63.04
-54.33
-44.16
-33.55
-23.33
-14.00
-5.70
1.61
8.05
13.73
18.69
22.95
26.50
29.38
31.60
33.27
34.51
35.49
36.40
37.33
38.29
39.22
39.98
40.44
40.56
40.32
39.76
38.91
37.80
36.45
34.82
32.88
30.63
28.12
25.42
22.67
19.98
17.41
14.92
12.39
9.72
6.83
3.77
0.69
-2.25
-4.97
-7.49
-9.89
-12.32
-14.88
-17.63
-20.57
-23.69
-26.92
-30.22
-33.50
-36.70
-39.81
-42.88
-46.08
-49.60
-53.60
-58.03
-62.55
-66.44
-68.79
-68.67
-65.49
-59.22
-50.44
-40.17
-29.54
-19.49
-10.53
-2.75
4.00
9.94
15.12
19.54
23.10
25.78
27.70
29.09
30.16
31.10
31.96
32.72
33.36
33.87
34.30
34.73
35.15
35.52
35.70
35.57
35.02
34.01
32.57
30.77
28.74
26.62
24.53
22.54
20.65
18.77
16.77
14.58
12.18
9.66
7.19
4.93
2.97
1.28
-0.29
-1.90
-3.72
-5.82
-8.17
-10.67
-13.20
-15.63
-17.88
-19.94
-21.86
-23.77
-25.92
-28.58
-31.98
-36.14
-40.78
-45.22
-48.56
-49.90
-48.58
-44.41
-37.74
-29.27
-19.89
-10.45
-1.56
6.36
13.11
18.64
22.98
26.24
28.59
30.26
31.49
32.49
33.45
34.40
35.31
36.09
36.66
36.98
37.08
37.00
36.76
36.35
35.71
34.77
33.48
31.84
29.86
27.62
25.20
22.71
20.24
17.81
15.40
12.88
10.14
7.14
3.94
0.66
-2.49
-5.38
-7.98
-10.37
-12.68
-15.09
-17.73
-20.67
-23.86
-27.20
-30.60
-33.99
-37.38
-40.83
-44.51
-48.59
-53.25
-58.50
-64.07
-69.24
-73.04
-74.36
-72.40
-66.98
-58.56
-48.20
-37.09
-26.30
-16.50
-7.93
-0.54
5.89
11.59
16.79
21.64
26.19
30.42
34.22
37.44
39.98
41.80
42.93
43.52
43.69
43.59
43.33
42.93
42.34
41.53
40.40
38.95
37.16
35.07
32.72
30.18
27.55
24.95
22.53
20.38
18.48
16.72
14.91
12.86
10.47
7.77
4.87
1.95
-0.84
-3.45
-5.89
-8.27
-10.75
-13.49
-16.61
-20.12
-23.90
-27.78
-31.54
-35.06
-38.34
-41.53
-44.90
-48.74
-53.24
-58.40
-63.89
-69.03
-72.84
-74.27
-72.53
-67.31
-58.97
-48.39
-36.76
-25.25
-14.70
-5.59
2.02
8.32
13.59
18.10
22.02
25.44
28.40
30.95
33.12
34.96
36.48
37.68
38.54
39.08
39.32
39.35
39.22
38.98
38.60
38.04
37.21
36.07
34.60
32.84
30.87
28.83
26.85
25.01
23.35
21.86
20.49
19.17
17.81
16.36
14.82
13.18
11.50
9.89
8.35
6.86
5.31
3.59
1.61
-0.63
-3.09
-5.69
-8.42
-11.29
-14.34
-17.57
-20.89
-24.12
-27.10
-29.74
-32.06
-34.30
-36.75
-39.71
-43.36
-47.60
-52.05
-55.99
-58.45
-58.52
-55.55
-49.41
-40.59
-30.07
-19.04
-8.55
0.70
8.43
14.70
19.73
23.74
26.95
29.50
31.55
33.28
34.86
36.42
38.05
39.73
41.43
43.06
44.50
45.67
46.46
46.77
46.52
45.69
44.30
42.45
40.23
37.77
35.12
32.37
29.56
26.79
24.13
21.62
19.26
16.96
14.63
12.15
9.48
6.65
3.78
1.03
-1.47
-3.64
-5.54
-7.37
-9.37
-11.80
-14.73
-18.13
-21.79
-25.45
-28.87
-31.95
-34.72
-37.35
-40.13
-43.38
-47.36
-52.15
-57.53
-62.86
-67.19
-69.46
-68.77
-64.72
-57.56
-48.13
-37.58
-27.07
-17.43
-9.13
-2.17
3.67
8.74
13.31
17.55
21.53
25.17
28.39
31.12
33.33
35.02
36.27
37.16
37.80
38.25
38.62
38.94
39.22
39.38
39.29
38.79
37.72
36.06
33.88
31.36
28.70
26.07
23.53
21.08
18.67
16.26
13.83
11.38
8.96
6.56
4.19
1.81
-0.63
-3.16
-5.76
-8.40
-10.99
-13.48
-15.91
-18.38
-20.99
-23.80
-26.77
-29.75
-32.57
-35.13
-37.48
-39.82
-42.44
-45.67
-49.69
-54.49
-59.70
-64.59
-68.22
-69.60
-68.03
-63.36
-56.00
-46.84
-36.92
-27.17
-18.19
-10.22
-3.23
2.92
8.40
13.30
17.67
21.49
24.79
27.57
29.88
31.76
33.26
34.36
35.03
35.28
35.15
34.79
34.32
33.84
33.33
32.68
31.77
30.52
28.98
27.23
25.40
23.58
21.81
20.07
18.35
16.67
15.06
13.56
12.17
10.86
9.55
8.13
6.54
4.77
2.84
0.86
-1.12
-3.05
-4.98
-7.01
-9.24
-11.79
-14.66
-17.76
-20.92
-23.94
-26.68
-29.10
-31.31
-33.55
-36.11
-39.26
-43.13
-47.54
-51.98
-55.59
-57.41
-56.59
-52.74
-45.98
-37.02
-26.83
-16.44
-6.63
2.09
9.48
15.52
20.29
23.95
26.77
28.99
30.86
32.54
34.08
35.46
36.68
37.70
38.52
39.13
39.54
39.74
39.73
39.55
39.26
38.86
38.30
37.52
36.40
34.92
33.09
30.99
28.71
26.34
23.90
21.34
18.60
15.61
12.42
9.13
5.91
2.88
0.05
-2.70
-5.57
-8.72
-12.26
-16.13
-20.15
-24.15
-27.98
-31.58
-34.99
-38.38
-41.96
-46.00
-50.63
-55.77
-61.01
-65.63
-68.73
-69.50
-67.40
-62.38
-54.87
-45.67
-35.69
-25.80
-16.58
-8.35
-1.10
5.32
11.08
16.33
21.05
25.14
28.49
31.07
32.92
34.20
35.05
35.57
35.79
35.73
35.51
35.22
35.01
34.94
34.94
34.85
34.44
33.56
32.15
30.27
28.07
25.76
23.52
21.50
19.73
18.15
16.63
15.04
13.26
11.27
9.05
6.61
3.97
1.15
-1.83
-4.94
-8.18
-11.61
-15.30
-19.32
-23.60
-27.98
-32.17
-35.88
-38.97
-41.54
-43.89
-46.43
-49.58
-53.57
-58.36
-63.52
-68.32
-71.76
-72.90
-71.07
-66.10
-58.41
-48.84
-38.44
-28.15
-18.59
-9.98
-2.24
4.82
11.37
17.39
22.77
27.33
30.91
33.50
35.26
36.42
37.23
37.84
38.34
38.70
38.91
38.96
38.96
38.94
38.89
38.74
38.36
37.59
36.40
34.82
32.97
31.00
29.00
26.97
24.85
22.55
20.03
17.30
14.45
11.57
8.81
6.22
3.81
1.57
-0.58
-2.70
-4.88
-7.20
-9.73
-12.49
-15.44
-18.51
-21.57
-24.58
-27.47
-30.28
-33.07
-35.98
-39.17
-42.82
-47.03
-51.76
-56.68
-61.12
-64.20
-64.98
-62.82
-57.51
-49.44
-39.47
-28.65
-17.99
-8.19
0.42
7.85
14.27
19.83
24.64
28.68
31.93
34.44
36.37
37.92
39.33
40.72
42.08
43.31
44.31
45.04
45.54
45.85
45.96
45.78
45.16
44.01
42.30
40.13
37.64
34.97
32.27
29.60
27.05
24.68
22.52
20.54
18.64
16.68
14.53
12.19
9.72
7.24
4.85
2.51
0.04
-2.80
-6.19
-10.16
-14.53
-18.98
-23.22
-27.11
-30.71
-34.22
-37.93
-42.09
-46.85
-52.21
-57.99
-63.73
-68.68
-71.86
-72.34
-69.53
-63.44
-54.70
-44.39
-33.64
-23.30
-13.80
-5.21
2.56
9.60
15.87
21.27
25.73
29.29
32.05
34.22
35.97
37.43
38.67
39.70
40.54
41.23
41.79
42.26
42.62
42.78
42.63
42.09
41.14
39.86
38.35
36.68
34.88
32.90
30.68
28.20
25.49
22.65
19.77
16.92
14.08
11.24
8.31
5.26
2.12
-1.04
-4.11
-7.04
-9.85
-12.64
-15.61
-18.90
-22.54
-26.44
-30.41
-34.23
-37.74
-40.96
-43.99
-47.04
-50.38
-54.24
-58.78
-63.94
-69.33
-74.17
-77.44
-78.14
-75.57
-69.64
-60.87
-50.28
-39.00
-27.99
-17.82
-8.67
-0.43
7.10
14.08
20.54
26.37
31.43
35.61
38.88
41.34
43.20
44.66
45.85
46.83
47.57
48.03
48.21
48.15
47.87
47.33
46.44
45.05
43.08
40.54
37.59
34.43
31.24
28.14
25.16
22.30
19.53
16.87
14.34
11.99
9.82
7.84
5.98
4.13
2.15
-0.07
-2.58
-5.31
-8.14
-10.92
-13.54
-16.03
-18.52
-21.17
-24.09
-27.25
-30.51
-33.67
-36.57
-39.20
-41.67
-44.20
-47.05
-50.48
-54.59
-59.18
-63.72
-67.32
-68.94
-67.67
-63.10
-55.43
-45.49
-34.45
-23.48
-13.41
-4.68
2.66
8.80
13.97
18.41
22.26
25.60
28.49
30.94
33.02
34.79
36.34
37.76
39.09
40.35
41.50
42.48
43.24
43.74
43.97
