1480595055.00
64.000000
-0.00
-0.00
-0.00
-0.00
-0.00
-0.00
-0.00
-0.00
-0.00
-0.00
0.01
0.01
0.01
0.00
-0.03
-0.06
-0.06
-0.01
0.13
0.37
0.70
1.05
1.37
1.63
1.83
2.02
2.26
2.61
3.13
3.76
4.42
5.03
5.51
5.87
6.21
6.62
7.21
8.08
9.12
10.15
10.99
11.53
11.83
12.12
12.73
13.92
15.93
18.52
21.24
23.62
25.35
26.54
27.67
29.46
32.48
37.22
43.16
49.42
55.01
59.28
62.32
64.98
68.50
73.91
81.94
91.84
102.17
111.34
118.28
123.05
126.82
131.78
137.34
146.09
158.36
173.59
189.77
203.31
209.43
203.31
181.91
145.47
98.51
47.64
-0.43
-41.66
-76.12
-107.37
-140.22
-178.17
-221.96
-269.26
-316.85
-361.70
-401.95
-436.63
-464.81
-484.95
-494.81
-492.37
-476.63
-448.61
-410.84
-366.66
-319.19
-270.59
-221.90
-173.43
-125.41
-78.36
-33.53
7.49
43.25
72.87
96.35
114.45
128.37
139.22
147.79
154.27
158.54
160.35
159.66
156.75
152.17
146.62
140.68
134.69
128.76
122.78
116.60
110.14
103.43
96.62
89.89
83.40
77.22
71.36
65.80
60.47
55.37
50.49
45.86
41.47
37.36
33.51
29.91
26.57
23.48
20.62
18.01
15.64
13.50
11.59
9.89
8.40
7.10
5.98
5.02
4.20
3.51
2.93
2.44
2.04
1.71
1.44
1.22
1.04
0.90
0.78
0.69
0.61
0.54
0.49
0.45
0.41
0.38
0.35
0.33
0.31
0.29
0.28
0.26
0.25
0.24
0.23
0.22
0.21
0.20
0.19
0.18
0.17
0.17
0.16
0.16
0.15
0.14
0.14
0.13
0.13
0.12
0.12
0.12
0.11
0.11
0.10
0.10
0.10
0.09
0.09
0.09
0.09
0.08
0.08
0.08
0.08
0.07
0.07
0.07
0.07
0.07
0.06
0.06
0.06
0.06
0.06
0.06
0.08
0.08
0.10
0.12
0.13
0.16
0.19
0.23
0.26
0.30
0.34
0.38
0.42
0.46
0.51
0.55
0.61
0.65
0.71
0.76
0.82
0.90
0.99
1.08
1.20
1.32
1.42
1.50
1.56
1.62
1.71
1.85
2.05
2.33
2.63
2.94
3.24
3.50
3.78
4.09
4.48
4.98
5.55
6.16
6.75
7.28
7.73
8.17
8.68
9.33
10.18
11.19
12.24
13.17
13.89
14.35
14.69
15.06
15.62
16.39
17.17
17.59
17.17
15.60
12.79
8.95
4.57
0.10
-4.11
-8.04
-11.97
-16.28
-21.21
-26.65
-32.08
-36.75
-40.09
-41.74
-41.94
-41.32
-40.64
-40.57
-41.68
-44.18
-47.96
-52.22
-55.33
-55.20
-49.96
-39.01
-23.58
-6.52
8.63
19.11
23.96
24.18
21.93
19.42
17.90
17.45
17.46
17.24
16.59
15.76
15.15
14.90
14.79
14.39
13.22
11.23
8.73
6.28
4.35
3.11
2.41
1.99
1.64
1.29
1.05
0.95
1.01
1.14
1.24
1.32
1.37
1.33
1.11
0.72
0.33
0.31
1.12
2.71
4.90
7.25
9.17
10.07
9.53
7.39
3.78
-0.83
-5.78
-10.19
-13.39
-15.15
-15.81
-16.10
-16.76
-18.17
-20.15
-22.15
-23.53
-24.04
-23.74
-22.87
-21.60
-19.96
-17.98
-15.90
-14.20
-13.31
-13.30
-13.72
-13.74
-12.65
-10.26
-7.10
-4.04
-1.79
-0.51
0.23
1.01
2.25
3.89
5.56
6.94
7.93
8.48
8.74
8.96
9.25
9.53
9.68
9.41
8.43
6.60
3.83
0.37
-3.32
-6.94
-10.53
-14.46
-19.38
-25.64
-32.98
-40.73
-47.17
-49.88
-46.81
-37.18
-21.81
-3.38
14.88
30.10
39.65
43.64
44.90
47.05
52.96
64.42
80.59
99.91
120.28
137.14
147.49
150.56
146.04
134.20
117.49
98.12
79.25
63.01
45.09
21.21
-10.24
-48.74
-90.19
-125.19
-145.35
-144.22
-120.06
-81.82
-38.02
7.40
53.76
103.29
162.00
216.12
248.64
275.82
298.96
304.47
289.53
257.64
199.40
124.95
54.53
4.45
-21.72
-42.33
-68.51
-101.96
-138.97
-177.19
-214.25
-252.52
-295.41
-329.14
-347.27
-349.96
-340.72
-320.81
-288.08
-238.82
-175.66
-106.67
-41.96
6.11
32.95
42.41
42.34
39.64
38.97
40.47
42.53
44.40
44.32
42.98
42.32
43.46
45.75
47.90
48.47
47.39
46.20
46.00
48.65
56.15
69.61
87.66
106.48
120.40
124.15
115.34
95.37
69.71
45.50
29.09
23.53
26.85
34.11
40.65
43.90
44.39
43.32
41.07
37.31
30.84
20.66
6.91
-8.95
-25.00
-39.48
-49.53
-56.51
-61.91
-66.84
-71.70
-76.02
-78.90
-79.59
-77.99
-74.91
-71.93
-70.04
-69.60
-70.30
-71.20
-71.50
-70.88
-69.75
-69.05
-70.02
-72.92
-77.21
-81.75
-85.38
-87.57
-88.56
-89.24
-90.67
-93.82
-99.19
-107.10
-117.47
-128.98
-138.92
-143.07
-137.02
-118.32
-88.10
-50.97
-13.43
18.48
42.78
60.11
73.23
85.20
97.97
111.91
126.48
141.02
154.14
165.86
175.40
181.75
184.12
182.67
178.51
173.38
168.87
165.84
164.75
165.10
165.74
164.40
157.92
143.28
118.78
85.81
47.06
7.13
-30.07
-62.68
-91.24
-116.36
-136.84
-148.91
-147.93
-130.33
-97.92
-57.49
-17.64
12.72
27.84
26.17
10.28
-14.85
-43.57
-71.29
-95.27
-115.02
-131.98
-147.82
-162.87
-174.22
-178.37
-171.25
-151.46
-121.03
-85.11
-50.29
-19.68
6.12
28.53
49.63
70.29
89.23
104.41
114.55
120.43
124.11
129.90
140.23
153.42
165.10
166.77
151.62
117.55
68.31
12.74
-38.30
-75.65
-94.53
-95.18
-82.24
-62.05
-40.91
-23.48
-12.04
-6.68
-5.98
-7.86
-10.38
-12.58
-14.18
-15.28
-15.81
-15.37
-13.59
-10.58
-7.30
-5.18
-5.49
-8.64
-14.01
-20.30
-26.18
-30.87
-34.24
-36.71
-38.80
-40.79
-42.50
-43.31
-42.54
-39.48
-34.40
-27.80
-20.52
-13.45
-7.24
-2.11
2.13
5.88
9.48
13.01
16.41
19.44
21.88
23.58
24.50
24.74
24.57
24.34
24.44
25.16
26.39
27.68
28.51
28.64
28.25
27.68
26.70
24.12
17.95
6.31
-11.25
-32.95
-55.09
-73.47
-84.99
-88.94
-86.98
-82.10
-77.18
-74.00
-72.88
-73.23
-74.18
-74.97
-75.10
-74.17
-71.74
-67.51
-61.37
-53.63
-44.98
-36.21
-28.03
-20.82
-14.58
-9.04
-3.84
1.34
6.69
12.21
17.78
23.14
28.08
32.51
36.70
41.17
46.62
53.72
62.82
73.80
86.00
98.33
109.57
118.65
124.88
128.11
128.60
126.95
123.81
119.85
115.63
111.64
108.21
105.41
102.92
99.94
95.44
88.50
78.85
67.07
54.57
43.24
34.85
30.56
30.70
34.79
41.85
50.71
60.46
70.48
80.62
90.96
101.68
112.58
123.05
132.12
138.40
140.31
136.34
125.56
108.18
85.75
60.77
35.84
12.63
-8.87
-30.25
-53.51
-79.24
-105.47
-127.72
-140.98
-141.44
-127.79
-101.58
-66.49
-27.08
12.56
49.48
82.09
108.64
128.47
142.75
154.43
166.83
181.99
199.82
218.13
233.33
238.85
228.71
200.86
158.58
109.02
60.36
19.14
-11.70
-33.30
-53.51
-81.26
-120.45
-167.70
-215.31
-255.96
-285.87
-305.95
-320.07
-337.53
-367.43
-412.81
-469.85
-532.16
-595.67
-660.01
-728.25
-766.31
-748.21
-672.99
-564.91
-453.48
-356.09
-276.51
-210.32
-150.84
-99.75
-51.24
-3.55
44.19
94.09
148.47
208.57
275.32
349.12
424.44
488.37
523.91
518.80
471.51
391.45
294.48
204.80
128.16
64.32
7.94
-49.92
-116.08
-192.98
-277.05
-361.90
-439.73
-503.83
-546.81
-564.36
-557.31
-529.83
-487.58
-435.74
-378.97
-321.18
-266.77
-218.37
-178.43
-149.27
-131.20
-121.76
-116.03
-109.13
-97.89
-82.26
-62.53
-39.91
-15.75
9.53
36.62
67.78
104.62
146.86
191.84
238.00
282.60
322.22
354.00
376.16
390.97
401.44
409.52
415.71
424.07
436.35
451.47
466.81
479.01
491.01
507.27
531.74
567.47
622.10
696.57
782.03
862.13
917.25
939.55
928.87
890.90
835.61
782.09
742.46
717.42
699.18
675.67
646.51
615.10
584.72
498.16
332.37
107.63
-125.54
-294.42
-407.08
-480.99
-530.18
-570.49
-608.72
-640.15
-662.80
-680.89
-703.10
-734.38
-766.33
-789.47
-798.71
-790.74
-755.88
-688.53
-592.34
-487.48
-387.17
-298.03
-223.95
-165.85
-120.33
-77.70
-29.94
24.23
82.60
142.12
202.86
265.33
328.06
387.18
437.06
469.81
477.97
458.92
416.71
360.65
301.41
247.38
203.71
172.05
151.34
139.26
133.81
133.60
135.92
137.68
136.08
130.64
120.86
106.80
88.82
67.54
43.36
12.80
-27.68
-78.98
-135.27
-189.91
-234.92
-263.11
-269.03
-251.17
-217.78
-179.03
-142.67
-106.58
-72.35
-43.06
-23.57
-16.66
-22.50
-46.42
-89.44
-146.05
-197.46
-235.63
-259.77
-275.66
-289.16
-304.65
-334.93
-388.06
-463.45
-541.26
-612.76
-675.79
-735.25
-796.53
-798.22
-704.38
-520.47
-361.45
-253.36
-196.29
-157.59
-126.78
-101.95
-82.87
-78.50
-92.38
-119.36
-136.77
-135.28
-114.43
-82.35
-50.76
-29.11
-31.13
-63.81
-125.87
-200.93
-280.20
-357.53
-397.78
-375.26
-286.27
-159.28
-31.97
69.22
141.42
189.03
220.74
244.00
258.52
266.26
266.54
261.85
258.10
264.90
286.98
325.16
370.66
410.73
435.66
440.66
427.99
404.21
377.23
351.71
329.15
308.51
286.74
262.06
234.58
206.85
182.15
162.45
147.71
136.18
125.48
113.39
99.41
84.68
71.58
62.25
57.20
55.09
53.51
50.21
44.25
36.41
28.64
22.91
20.58
21.95
26.65
33.87
41.71
47.05
45.26
31.88
5.70
-28.91
-62.19
-82.54
-81.67
-59.04
-21.61
19.14
52.70
73.63
82.64
83.97
82.17
80.38
77.70
73.58
68.53
64.31
62.37
62.13
59.94
49.85
28.07
-6.21
-48.57
-91.17
-125.79
-147.28
-155.24
-153.41
-147.28
-141.60
-138.98
-138.95
-139.04
-135.76
-125.72
-107.07
-80.56
-48.76
-16.33
11.76
32.79
46.87
56.26
63.06
67.10
65.58
54.95
33.66
4.02
-27.87
-55.04
-72.28
-78.29
-75.47
-67.94
-59.15
-50.63
-42.37
-34.07
-26.27
-20.27
-17.20
-16.99
-18.13
-18.53
-16.81
-13.07
-9.10
-7.24
-9.57
-16.91
-28.81
-43.43
-57.39
-65.98
-64.32
-49.95
-24.35
6.56
34.68
53.47
61.53
63.41
67.23
80.20
103.96
134.05
161.84
178.43
178.36
161.54
132.69
99.01
67.72
43.17
27.49
20.45
20.33
24.58
30.62
36.40
40.07
40.20
34.48
22.00
3.31
-19.82
-45.48
-72.58
-101.15
-132.58
-160.71
-184.98
-206.54
-226.07
-241.88
-249.35
-242.82
-218.38
-177.01
-124.68
-71.92
-28.78
-0.72
12.45
15.61
14.96
14.55
14.74
13.68
8.31
-2.78
-16.77
-28.87
-33.85
-29.13
-15.99
0.89
16.49
27.08
31.55
31.15
27.11
19.34
4.93
-19.97
-57.45
-104.80
-155.79
-203.65
-243.34
-274.12
-298.50
-320.89
-342.43
-363.15
-379.60
-381.35
-359.84
-312.38
-248.98
-176.84
-99.52
-21.31
52.70
118.91
175.50
221.25
255.37
277.22
287.70
292.19
296.83
306.37
322.57
343.64
364.93
381.40
389.44
388.81
386.88
392.40
411.91
447.54
497.48
558.32
627.15
701.54
745.43
730.75
646.67
506.60
338.54
170.02
20.55
-99.20
-186.71
-246.01
-280.28
-293.97
-292.07
-280.26
-264.44
-249.96
-241.17
-240.93
-249.44
-260.81
-266.96
-261.23
-241.28
-209.75
-172.43
-136.18
-107.18
-89.32
-80.95
-77.94
-76.02
-72.65
-67.18
-59.86
-51.10
-41.32
-31.87
-23.00
-15.67
-11.89
-13.91
-22.74
-36.87
-52.56
-65.23
-71.48
-69.78
-61.31
-49.31
-37.73
-29.70
-26.73
-28.70
-34.44
-42.46
-51.35
-59.82
-66.68
-70.80
-71.29
-67.92
-61.17
-52.16
-42.24
-32.61
-23.92
-16.39
-9.85
-4.11
0.99
5.59
9.83
13.93
18.07
22.29
26.40
30.04
32.70
33.77
32.86
29.87
25.29
20.12
15.62
12.81
12.02
12.71
13.70
13.80
12.25
9.10
5.11
1.21
-1.84
-3.82
-4.87
-5.41
-5.78
-6.17
-6.57
-6.74
-6.45
-5.55
-4.26
-3.06
-2.54
-3.08
-4.66
-6.71
-8.43
-9.28
-9.20
-8.61
-8.11
-8.15
-8.71
-9.45
-9.98
-10.02
-9.55
-8.58
-7.01
-4.64
-1.32
2.84
7.39
11.59
14.76
16.41
16.44
15.19
13.15
10.94
9.00
7.54
6.52
5.76
5.07
4.49
4.20
4.46
5.44
6.98
8.52
9.42
9.24
7.74
5.06
1.41
-3.02
-8.01
-13.33
-18.64
-23.61
-27.91
-31.34
-33.65
-34.62
-34.08
-32.08
-29.01
-25.57
-22.39
-19.78
-17.53
-15.12
-12.22
-9.00
-6.01
-3.88
-2.71
-2.00
-1.05
0.58
2.76
4.83
6.12
6.40
6.02
5.67
5.88
6.64
7.50
7.82
7.19
5.70
3.79
2.05
1.04
1.09
2.33
4.67
7.74
10.98
13.69
15.27
15.49
14.57
13.12
11.87
11.40
11.92
13.23
14.84
16.14
16.64
16.13
14.80
13.11
11.70
10.96
10.91
11.09
10.74
9.24
6.35
2.38
-1.99
-6.00
-9.08
-10.96
-11.59
-11.08
-9.51
-7.17
-4.44
-1.90
-0.20
0.34
-0.12
-0.99
-1.45
-0.83
0.97
3.57
6.17
7.94
8.28
7.00
4.40
1.22
-1.48
-2.72
-1.95
0.65
4.12
7.08
8.39
7.74
5.77
3.74
2.78
3.40
5.40
8.16
11.22
14.41
17.81
21.39
24.71
27.18
28.40
28.42
27.81
27.34
27.64
28.98
31.20
33.93
36.87
39.95
43.43
47.73
53.28
60.15
67.96
75.98
83.32
89.42
94.10
97.75
101.04
104.78
109.75
116.69
126.18
138.24
152.15
166.20
178.14
185.56
187.20
183.61
176.80
169.36
163.44
160.11
159.25
159.79
159.84
157.77
152.85
145.29
135.79
125.11
113.75
101.88
89.49
75.86
61.07
46.39
33.62
24.01
17.61
13.26
9.15
3.67
-6.34
-22.10
-41.95
-62.73
-82.00
-99.30
-115.72
-132.90
-152.11
-178.58
-214.92
-259.34
-307.09
-353.88
-396.90
-433.67
-460.87
-474.55
-478.88
-477.07
-468.77
-451.87
-426.88
-397.98
-370.92
-351.18
-343.55
-361.53
-412.39
-491.14
-582.07
-667.06
-731.93
-769.23
-778.76
-706.61
-539.90
-315.63
-95.37
80.04
202.88
283.46
334.38
365.23
382.49
382.12
364.05
336.07
309.88
293.30
287.58
288.80
293.80
300.64
301.83
294.19
281.35
271.23
270.21
280.04
297.29
315.38
326.63
321.02
295.72
258.47
224.27
204.39
205.22
223.94
250.49
272.84
280.91
272.19
251.14
224.47
196.70
169.57
143.46
119.55
100.51
87.84
79.83
71.40
55.50
26.94
-14.52
-64.87
-119.59
-175.25
-229.97
-284.20
-339.91
-399.84
-464.03
-528.54
-585.62
-628.82
-653.87
-657.90
-641.05
-606.66
-560.82
-507.52
-447.16
-376.05
-294.02
-205.96
-115.66
-24.95
66.28
148.41
209.89
245.92
277.00
313.41
351.44
388.53
416.38
432.97
439.22
440.21
443.54
460.84
496.41
542.08
590.61
637.55
675.86
696.96
696.27
645.89
541.51
440.05
361.97
296.34
239.69
187.10
133.13
75.03
13.10
-46.74
-103.00
-165.02
-238.88
-315.52
-381.00
-424.18
-442.27
-439.93
-420.82
-390.10
-358.35
-340.92
-333.41
-332.01
-334.74
-341.07
-351.38
-365.01
-384.39
-409.13
-441.34
-479.08
-522.03
-568.76
-614.95
-653.14
-673.49
-668.46
-637.00
-583.23
-511.81
-430.33
-345.83
-263.07
-184.13
-108.99
-37.15
31.74
98.12
164.71
233.52
306.10
383.08
463.73
544.37
617.28
672.03
698.37
691.88
656.10
602.93
548.56
507.78
488.65
490.92
509.03
536.72
569.77
604.79
636.71
656.70
654.53
622.09
557.29
466.33
362.68
260.29
167.42
84.45
4.85
-77.74
-167.78
-267.00
-373.22
-477.93
-571.36
-645.43
-695.41
-722.02
-724.61
-704.67
-666.96
-616.17
-551.58
-472.78
-382.64
-287.61
-198.17
-115.24
-35.53
43.98
128.18
225.80
341.47
472.28
607.68
729.74
832.00
914.30
978.90
985.92
912.74
770.67
598.75
465.72
361.48
268.25
177.84
77.83
-22.95
-107.53
-162.99
-186.41
-186.29
-180.27
-180.46
-195.18
-231.91
-282.20
-334.39
-382.62
-421.47
-454.05
-490.70
-533.68
-563.36
-596.73
-620.60
-624.38
-603.47
-558.79
-497.07
-428.50
-356.37
-278.63
-194.85
-99.43
13.22
130.23
227.03
280.56
282.39
244.04
187.56
133.54
90.43
56.13
22.68
-16.98
-66.96
-128.77
-199.07
-269.01
-333.61
-386.91
-425.04
-445.63
-445.53
-422.72
-378.88
-326.55
-269.30
-214.55
-168.24
-132.56
-105.63
-81.67
-52.87
-15.13
35.08
98.35
168.83
239.28
304.13
360.14
406.94
446.27
481.34
518.98
564.91
618.34
674.59
727.05
767.83
789.37
786.53
758.55
712.88
658.41
598.40
532.46
458.66
375.14
281.16
177.75
48.02
-102.06
-250.00
-375.28
-469.79
-536.91
-583.60
-615.09
-633.70
-639.95
-638.07
-626.51
-609.74
-594.35
-585.62
-586.19
-596.34
-614.43
-637.16
-657.88
-664.63
-653.53
-625.00
-582.55
-531.84
-479.11
-429.10
-383.33
-338.59
-290.49
-238.60
-184.56
-130.74
-78.81
-28.97
19.96
69.73
122.11
177.27
231.92
282.07
324.94
360.17
390.00
418.34
449.30
485.86
528.58
574.54
619.50
659.21
690.95
714.23
730.45
742.13
752.15
763.40
777.85
796.06
815.84
831.92
836.87
823.26
786.40
726.34
648.24
560.39
471.24
385.94
306.15
231.76
162.79
100.31
45.73
-0.27
-38.76
-72.50
-106.51
-144.70
-187.28
-230.30
-267.95
-295.78
-312.53
-320.20
-322.81
-327.11
-338.07
-355.80
-375.23
-389.71
-394.64
-389.27
-376.14
-359.75
-348.52
-350.37
-369.56
-405.63
-455.27
-513.97
-576.21
-634.79
-660.69
-631.59
-548.16
-436.70
-328.92
-243.88
-185.00
-146.15
-118.42
-95.02
-76.73
-66.99
-67.17
-73.73
-81.06
-83.06
-76.94
-63.22
-44.68
-27.94
-18.47
-18.17
-24.17
-31.18
-34.37
-30.89
-19.57
-0.16
21.98
42.29
57.62
67.16
71.83
73.69
75.52
80.82
92.91
112.94
140.47
173.40
208.77
242.97
272.24
293.25
304.15
305.05
297.60
284.98
270.49
256.61
244.34
233.34
222.75
211.91
200.68
189.07
177.07
164.25
150.34
135.85
122.37
112.02
106.44
105.65
107.60
108.75
105.16
94.16
75.33
50.67
23.76
-1.69
-23.04
-39.56
-52.22
-63.07
-74.21
-86.98
-101.37
-115.70
-126.83
-130.77
-123.99
-104.78
-74.41
-37.40
-0.69
28.41
44.88
47.91
41.25
31.62
25.84
27.93
37.74
51.57
64.41
72.44
74.52
71.90
66.73
60.37
52.61
42.15
28.23
11.84
-4.06
-15.56
-19.64
-15.73
-6.17
4.66
11.97
12.62
6.18
-5.31
-18.39
-30.16
-39.73
-48.78
-61.10
-81.40
-113.73
-159.88
-218.26
-283.05
-344.82
-392.51
-416.42
-411.05
-376.97
-320.85
-253.39
-186.13
-128.28
-85.00
-57.11
-42.20
-36.13
-34.82
-35.70
-38.17
-43.13
-51.10
-60.10
-64.29
-55.01
-24.32
30.86
105.99
189.37
266.12
323.58
355.60
363.86
355.76
340.22
324.17
311.03
301.42
294.77
290.66
289.11
289.58
290.22
287.91
279.98
266.27
250.22
237.82
234.70
242.52
257.01
268.99
268.06
247.12
205.09
146.89
80.48
13.37
-49.73
-107.23
-159.29
-206.13
-247.26
-281.86
-309.66
-331.80
-350.69
-369.30
-390.09
-414.00
-440.21
-466.27
-489.01
-505.20
-512.32
-508.93
-494.77
-470.68
-438.39
-400.40
-359.60
-318.99
-281.19
-248.14
-220.82
-199.24
-182.70
-170.01
-159.88
-150.98
-142.03
-131.67
-118.35
-100.65
-77.65
-49.67
-18.53
12.76
40.82
63.03
78.19
86.54
89.14
87.07
80.82
70.75
57.74
43.74
31.48
23.53
21.11
23.42
28.19
32.68
34.99
34.54
31.98
28.55
25.30
22.88
21.28
19.94
17.88
13.96
7.38
-1.87
-12.59
-22.74
-30.20
-33.86
-34.22
-33.05
-32.36
-33.21
-35.47
-38.15
-40.38
-42.01
-43.74
-46.65
-51.51
-58.23
-65.71
-72.24
-76.11
-76.11
-71.50
-62.01
-47.75
-29.21
-7.28
16.78
41.27
64.22
83.90
99.55
111.67
121.60
130.87
140.95
153.32
169.03
188.15
209.70
231.86
252.57
269.81
282.23
290.58
297.83
307.29
319.62
331.68
337.53
330.81
306.18
260.37
194.37
114.52
31.25
-43.30
-97.20
-120.69
-109.40
-68.18
-12.35
37.28
62.06
50.89
2.50
-75.08
-167.28
-251.40
-300.23
-300.56
-263.72
-213.52
-168.55
-135.30
-111.58
-91.90
-73.09
-57.47
-52.43
-64.71
-94.17
-132.41
-165.95
-183.99
-179.69
-153.97
-115.26
-76.23
-46.92
-29.89
-20.90
-12.70
-0.56
16.27
34.85
50.94
61.69
68.36
76.96
90.82
113.08
142.87
175.46
203.88
221.36
223.60
210.52
186.29
157.29
130.05
108.45
93.55
84.25
78.73
75.63
74.68
76.45
81.14
88.09
94.93
98.62
96.80
89.07
77.32
64.73
54.15
46.65
41.74
37.69
33.10
27.54
21.47
15.29
8.52
-0.07
-11.73
-26.27
-41.80
-55.13
-63.10
-63.85
-57.47
-45.72
-30.85
-14.61
2.44
20.75
41.16
64.37
90.45
118.78
147.98
176.02
200.27
217.98
226.89
226.11
216.68
201.54
184.88
170.91
162.75
161.59
166.55
175.03
183.34
187.60
184.49
172.02
149.85
119.22
82.34
41.65
-0.82
-43.72
-86.21
-127.63
-167.26
-204.19
-237.36
-265.72
-288.42
-304.94
-315.30
-320.18
-320.97
-319.45
-317.23
-315.06
-312.41
-307.74
-299.34
-286.45
-269.98
-252.44
-237.01
-226.32
-221.42
-221.63
-224.98
-229.05
-231.46
-230.06
-222.79
-207.82
-184.06
-151.72
-112.59
-69.81
-27.07
12.13
45.12
70.39
87.74
98.31
104.42
109.05
114.80
123.02
133.31
143.96
153.00
159.37
163.45
166.57
170.15
174.76
180.00
184.97
189.17
192.97
197.50
203.94
212.81
223.69
235.46
247.06
258.04
268.73
279.86
291.87
304.43
316.32
325.70
330.65
329.56
321.24
304.91
280.12
246.88
206.01
159.36
109.50
59.30
11.09
-34.07
-76.42
-117.35
-159.07
-204.06
-254.39
-310.32
-368.99
-423.83
-465.67
-485.47
-477.95
-444.09
-391.00
-329.22
-268.66
-215.47
-171.30
-135.03
-105.37
-82.59
-68.33
-63.91
-68.69
-79.68
-92.53
-103.42
-110.40
-113.77
-115.43
-117.77
-122.85
-132.28
-147.53
-169.97
-200.53
-238.69
-281.81
-325.06
-362.39
-388.22
-398.89
-393.33
-372.82
-340.13
-298.67
-252.17
-204.57
-159.87
-121.58
-91.82
-70.72
-56.22
-44.94
-33.39
-18.97
-0.47
22.10
48.10
76.70
107.00
138.09
168.87
198.06
224.35
246.68
264.38
277.29
285.75
290.48
292.36
292.18
290.38
286.93
281.44
273.45
262.71
249.50
234.61
219.16
204.31
191.09
180.33
172.51
167.73
165.62
165.33
165.71
165.63
164.35
161.71
157.97
153.59
148.88
143.85
138.36
132.24
125.54
118.58
111.86
105.84
100.68
96.18
91.81
86.90
80.90
73.51
64.78
54.87
43.87
31.61
17.64
1.42
-17.37
-38.59
-61.52
-84.98
-107.59
-127.99
-144.95
-157.47
-164.84
-166.60
-162.81
-154.00
-141.08
-125.23
-107.69
-89.64
-72.14
-56.12
-42.31
-31.17
-22.84
-17.16
-13.78
-12.23
-11.99
-12.56
-13.43
-14.22
-14.76
-15.20
-15.78
-16.67
-17.69
-18.36
-18.04
-16.18
-12.51
-7.05
0.18
9.29
20.50
33.92
49.17
65.16
80.16
92.27
99.95
102.67
101.11
97.01
92.66
90.16
90.68
94.07
98.97
103.40
105.65
104.80
100.94
94.77
87.22
78.84
69.83
60.06
49.30
37.37
24.36
10.83
-2.10
-12.92
-20.83
-26.45
-32.59
-43.72
-64.40
-97.38
-142.52
-197.11
-257.29
-319.30
-379.73
-434.64
-478.95
-506.56
-512.03
-492.72
-450.25
-389.62
-316.98
-237.54
-155.11
-73.83
-0.28
55.64
83.08
75.03
32.88
-31.90
-100.55
-153.29
-176.17
-165.38
-127.48
-75.37
-22.81
20.32
49.74
65.80
70.93
67.44
56.86
40.64
21.55
4.41
-4.84
-1.37
16.23
44.93
77.84
107.13
127.07
136.25
137.54
136.11
136.63
141.12
148.35
155.07
157.89
154.94
146.42
134.15
120.50
107.36
95.66
85.29
75.39
64.79
52.49
38.03
21.74
5.13
-9.25
-18.05
-17.73
-5.22
21.37
62.10
114.77
174.59
234.59
286.57
322.65
337.07
327.49
295.24
244.53
181.14
111.18
40.53
-25.36
-81.50
-123.83
-150.14
-160.90
-159.35
-150.46
-139.31
-129.47
-122.40
-117.76
-114.37
-111.21
-107.66
-103.55
-98.77
-93.23
-86.79
-79.41
-71.01
-61.28
-49.97
-36.96
-22.65
-8.02
5.60
17.03
25.59
31.37
35.00
37.31
39.03
40.63
42.31
43.93
45.21
45.71
45.02
42.91
39.36
34.71
29.43
24.03
18.88
14.17
9.91
5.95
2.06
-1.94
-5.99
-9.75
-12.70
-14.36
-14.51
-13.31
-11.20
-8.57
-5.78
-3.04
-0.54
1.49
2.85
3.38
2.94
1.51
-0.87
-4.10
-8.04
-12.59
-17.62
-23.05
-28.81
-34.73
-40.44
-45.46
-49.32
-51.81
-53.15
-53.97
-55.07
-57.03
-59.94
-63.38
-66.59
-68.77
-69.28
-67.76
-64.19
-58.81
-52.18
-45.07
-38.33
-32.65
-28.35
-25.29
-22.99
-20.96
-19.00
-17.23
-16.07
-15.92
-16.97
-19.06
-21.69
-24.04
-24.93
-22.91
-16.38
-3.98
14.90
39.52
67.75
96.38
121.85
141.26
153.08
157.71
157.42
155.71
156.17
161.46
172.86
190.48
213.75
241.50
271.55
300.16
321.86
330.56
321.32
292.23
244.95
183.88
114.30
40.90
-32.32
-101.03
-159.58
-201.62
-222.34
-221.30
-203.79
-179.60
-159.41
-150.63
-154.92
-168.48
-184.68
-197.70
-204.68
-205.97
-203.66
-199.66
-194.65
-188.16
-179.29
-167.54
-153.00
-135.89
-116.33
-94.02
-68.64
-40.21
-9.52
21.91
52.17
79.30
101.70
118.34
128.99
134.09
134.68
131.99
127.12
120.70
112.80
103.19
91.57
78.03
63.19
48.08
33.83
21.21
10.37
0.89
-7.86
-16.45
-25.01
-33.43
-41.51
-49.33
-57.24
-65.75
-75.16
-85.16
-94.91
-103.17
-108.65
-110.36
-107.69
-100.30
-88.04
-70.96
-49.39
-24.25
2.96
30.17
55.16
76.00
91.57
101.68
106.97
108.60
107.65
104.70
99.62
91.61
79.63
62.88
41.37
15.99
-11.59
-39.45
-65.99
-90.08
-111.23
-129.15
-143.56
-154.02
-160.07
-161.39
-158.01
-150.27
-138.61
-123.45
-105.08
-83.83
-60.16
-34.79
-8.64
17.14
41.31
62.64
79.95
92.43
99.68
101.83
99.49
93.62
85.36
75.89
66.32
57.49
49.88
43.56
38.23
33.50
29.14
25.24
22.15
20.29
19.94
21.21
24.11
28.65
34.82
42.36
50.60
58.36
64.30
67.30
66.91
63.48
57.99
51.68
45.56
40.24
35.87
32.22
28.85
25.27
21.08
16.14
10.58
4.73
-1.10
-6.89
-12.89
-19.44
-26.64
-34.18
-41.36
-47.44
-51.90
-54.64
-55.89
-55.94
-54.96
-52.93
-49.74
-45.35
-40.00
-34.09
-28.19
-22.84
-18.34
-14.73
-11.80
-9.25
-6.93
-4.94
-3.47
-2.57
-1.90
-0.81
1.31
4.59
8.50
12.08
14.37
14.93
14.09
12.67
11.65
11.65
12.89
15.11
17.80
20.44
22.67
24.29
25.33
25.97
26.51
27.23
28.38
30.00
31.94
33.93
35.54
36.41
36.24
34.87
32.34
28.86
24.81
20.58
16.47
12.61
8.87
5.03
0.92
-3.40
-7.44
-10.53
-12.02
-11.67
-9.75
-7.00
-4.29
-2.28
-1.33
-1.44
-2.48
-4.29
-6.64
-9.45
-12.67
-16.43
-20.97
-26.57
-33.41
-41.44
-50.29
-59.35
-67.84
-74.83
-79.37
-80.66
-78.27
-72.32
-63.46
-52.71
-41.07
-29.30
-17.95
-7.46
1.63
8.90
14.27
18.29
21.99
26.52
32.51
39.76
47.30
53.88
58.58
61.02
61.37
60.12
57.77
54.89
52.06
49.93
49.07
49.67
51.44
53.61
55.23
55.61
54.57
52.52
50.35
48.91
48.80
50.15
52.66
55.80
58.88
61.14
61.73
59.67
54.11
44.70
32.04
17.65
3.53
-8.55
-17.86
-25.01
-31.58
-39.33
-49.39
-61.69
-75.10
-87.96
-98.70
-106.49
-111.44
-114.44
-116.84
-120.02
-124.81
-131.14
-137.72
-141.91
-140.22
-128.97
-105.76
-71.08
-29.50
10.59
38.52
44.25
21.65
-28.95
-99.82
-177.64
-247.27
-296.49
-319.82
-319.71
-304.55
-284.26
-265.87
-250.85
-235.71
-214.95
-184.64
-144.43
-97.39
-47.75
1.57
49.94
98.35
147.58
197.09
244.91
288.73
327.28
360.79
390.23
415.74
435.57
446.00
442.84
423.61
389.00
343.42
293.55
246.05
205.25
171.70
142.45
112.66
78.01
36.79
-9.00
-54.15
-92.10
-117.05
-125.56
-117.02
-92.92
-55.96
-9.54
42.08
93.03
135.76
161.94
164.92
142.48
98.33
41.59
-16.16
-64.65
-98.21
-116.83
-124.89
-128.54
-132.66
-139.29
-147.58
-155.12
-159.61
-160.18
-157.56
-153.45
-149.47
-146.32
-143.71
-140.71
-136.70
-131.95
-127.62
-124.89
-124.05
-124.34
-124.25
-122.66
-119.50
-115.94
-113.56
-113.46
-115.50
-118.41
-120.49
-120.35
-117.46
-112.01
-104.56
-95.77
-86.09
-75.53
-63.41
-48.25
-27.69
0.73
38.63
85.85
140.04
197.28
253.18
304.36
349.30
388.33
422.62
452.98
479.01
499.01
510.94
513.49
507.01
493.47
475.73
456.33
436.60
416.63
395.93
374.37
352.58
331.55
311.68
291.91
269.75
242.31
207.75
166.38
120.77
74.75
31.73
-6.58
-40.63
-72.49
-104.56
-138.23
-173.18
-207.63
-239.30
-266.58
-289.36
-309.07
-328.09
-348.87
-373.30
-402.22
-435.28
-470.41
-503.61
-529.27
-541.44
-536.04
-512.73
-475.82
-432.92
-391.99
-358.18
-332.18
-310.65
-288.72
-262.77
-232.11
-198.78
-165.86
-135.59
-108.41
-83.30
-59.10
-35.51
-13.64
4.74
18.28
27.05
32.66
37.65
44.22
53.29
64.15
74.74
82.72
86.56
86.14
82.80
78.81
76.45
77.15
81.00
86.86
92.98
97.62
99.71
99.07
96.16
91.74
86.55
81.16
75.89
70.92
66.32
62.13
58.37
55.13
52.45
50.26
48.23
45.75
42.12
37.05
30.81
24.35
18.85
15.06
12.99
11.79
10.26
7.52
3.59
-0.63
-3.77
-4.75
-3.27
0.00
3.84
7.04
8.91
9.41
8.88
7.75
6.34
4.82
3.33
2.18
1.75
2.31
3.82
5.76
7.35
7.79
6.68
4.24
1.27
-1.20
-2.21
-1.26
1.56
5.63
10.01
13.74
16.07
16.63
15.43
12.90
9.66
6.43
3.76
1.98
1.08
0.85
1.06
1.56
2.31
3.30
4.42
5.39
5.92
5.77
4.94
3.60
2.08
0.63
-0.60
-1.60
-2.47
-3.36
-4.41
-5.73
-7.31
-9.03
-10.72
-12.10
-12.98
-13.26
-12.91
-12.00
-10.62
-8.95
-7.39
-6.49
-6.79
-8.53
-11.47
-14.82
-17.68
-19.22
-19.11
-17.51
-14.80
-11.25
-6.95
-1.93
3.62
9.06
13.46
16.04
16.61
15.68
14.26
13.30
13.22
13.77
14.07
13.19
10.56
6.20
0.67
-5.18
-10.56
-14.93
-18.09
-20.21
-21.59
-22.64
-23.66
-24.84
-26.18
-27.64
-29.15
-30.66
-32.15
-33.66
-35.24
-36.97
-38.89
-40.97
-43.11
-45.12
-46.71
-47.55
-47.39
-46.20
-44.34
-42.40
-41.02
-40.45
-40.28
-39.51
-36.98
-31.85
-24.11
-14.68
-5.04
3.19
8.96
12.02
12.98
12.94
13.08
14.26
16.73
20.30
24.66
29.69
35.61
42.89
51.76
61.92
72.47
82.22
90.12
95.77
99.37
101.53
102.78
103.27
102.67
100.42
96.09
89.70
81.81
73.31
65.06
57.62
51.26
45.96
41.66
38.30
35.66
33.36
30.84
27.60
23.43
18.53
13.54
9.15
5.83
3.74
2.81
2.82
3.53
4.59
5.58
6.12
6.15
6.01
6.40
7.95
10.75
14.18
17.07
18.40
17.85
16.13
14.60
14.65
17.04
21.50
26.80
30.99
31.85
27.38
16.24
-1.92
-26.31
-55.04
-85.38
-114.21
-138.50
-155.78
-164.70
-165.23
-158.76
-147.86
-135.69
-125.23
-118.33
-115.19
-114.25
-113.07
-109.34
-102.06
-92.22
-82.56
-76.87
-78.87
-91.36
-115.51
-150.27
-192.00
-234.46
-269.74
-290.16
-290.49
-269.93
-232.52
-185.43
-136.02
-89.04
-45.28
-2.37
42.57
89.99
136.59
176.67
205.20
220.71
225.83
225.41
222.86
217.44
204.20
176.73
130.86
66.98
-10.12
-93.24
-175.00
-249.24
-310.69
-354.70
-377.50
-377.37
-355.94
-318.25
-271.13
-220.91
-171.90
-125.79
-82.27
-40.18
1.71
44.38
88.37
133.69
179.43
223.61
263.59
296.82
321.44
336.97
344.41
345.71
343.16
338.70
333.58
328.52
323.81
319.63
316.23
314.08
313.92
316.45
321.76
328.56
333.97
333.80
323.89
301.63
266.99
222.35
171.31
117.32
62.81
9.51
-40.63
-84.92
-120.12
-143.78
-155.37
-156.74
-151.38
-142.85
-133.39
-123.38
-111.99
-98.45
-83.23
-68.32
-56.45
-49.84
-49.09
-52.96
-59.08
-65.13
-69.74
-72.64
-74.05
-73.83
-71.22
-65.56
-57.27
-48.56
-42.73
-42.71
-49.33
-60.73
-73.27
-83.56
-90.31
-94.73
-99.48
-106.54
-115.86
-125.37
-132.34
-135.19
-134.38
-131.90
-129.73
-128.57
-127.44
-124.44
-118.16
-108.58
-97.06
-85.49
-75.11
-65.84
-56.72
-46.73
-35.53
-23.89
-13.29
-5.25
-0.67
0.46
-1.07
-4.17
-7.87
-11.64
-15.55
-19.99
-25.39
-31.89
-39.03
-45.85
-51.13
-53.76
-53.16
-49.49
-43.45
-35.93
-27.77
-19.50
-11.36
-3.37
4.53
12.40
20.18
27.61
34.26
39.56
43.21
45.33
46.42
47.27
48.52
50.36
52.48
54.25
55.09
54.85
53.80
52.51
51.57
51.26
51.50
51.88
51.98
51.42
50.09
48.08
45.65
43.20
41.18
39.88
39.38
39.49
39.73
39.61
38.75
36.97
34.30
30.86
26.80
22.49
18.66
16.30
16.50
20.05
26.98
36.49
47.29
58.07
67.99
76.98
85.53
94.34
103.97
114.46
125.49
136.46
146.73
155.86
163.73
170.63
177.13
183.91
191.37
199.51
207.85
215.66
222.38
227.77
231.92
235.04
237.26
238.67
239.45
239.84
239.90
239.02
235.69
227.82
213.67
192.79
166.33
136.48
105.26
73.55
40.96
6.51
-30.21
-68.44
-106.50
-142.80
-176.84
-209.71
-243.83
-282.04
-326.44
-377.02
-430.82
-481.81
-522.09
-543.96
-542.52
-517.42
-473.03
-416.92
-357.41
-301.11
-251.66
-210.04
-175.66
-147.67
-125.40
-108.17
-94.74
-83.16
-71.24
-57.38
-41.30
-24.15
-7.78
6.28
17.71
27.44
36.97
47.37
58.61
69.64
79.08
86.04
90.49
93.28
95.58
98.38
102.18
106.94
112.13
116.99
120.73
122.71
122.63
120.61
117.11
112.73
107.93
102.83
97.20
90.62
82.77
73.71
63.85
53.77
43.93
34.53
25.48
16.70
8.31
0.62
-5.89
-10.97
-14.71
-17.50
-19.87
-22.26
-24.89
-27.77
-30.66
-33.12
-34.62
-34.74
-33.32
-30.67
-27.40
-24.26
-21.79
-20.24
-19.51
-19.38
-19.57
-19.84
-19.95
-19.58
-18.42
-16.26
-13.26
-9.94
-6.99
-5.07
-4.47
-5.08
-6.44
-7.92
-9.02
-9.48
-9.28
-8.50
-7.18
-5.18
-2.34
1.41
5.95
10.93
15.93
20.56
24.53
27.56
29.48
30.15
29.68
28.41
27.01
26.28
27.04
29.80
34.58
40.78
47.22
52.39
54.88
53.81
49.17
41.91
33.47
25.26
18.05
11.68
5.18
-2.71
-13.00
-25.91
-40.67
-55.52
-68.01
-75.67
-76.91
-71.80
-62.44
-52.44
-45.67
-44.80
-50.32
-60.58
-72.82
-84.36
-93.58
-99.96
-103.60
-104.53
-102.40
-96.80
-87.75
-76.04
-63.10
-50.42
-39.00
-29.01
-19.99
-11.25
-2.61
5.46
11.90
15.73
16.66
15.52
14.08
14.33
17.66
24.24
33.08
42.52
50.84
56.89
60.25
61.23
60.56
59.19
58.07
57.94
59.07
61.25
63.83
65.97
67.03
66.68
65.04
62.65
60.33
58.98
59.23
61.13
63.92
66.24
66.45
63.24
55.98
44.81
30.59
14.73
-0.95
-14.48
-24.17
-29.16
-29.73
-27.09
-22.85
-18.16
-13.43
-8.48
-3.11
2.40
7.23
10.51
11.94
12.08
12.00
12.66
14.34
16.52
18.28
18.83
17.89
15.80
13.21
10.88
9.25
8.46
8.31
8.36
8.05
6.74
3.96
-0.53
-6.34
-12.58
-17.94
-21.33
-22.27
-21.08
-18.67
-15.91
-13.22
-10.50
-7.52
-4.50
-2.20
-1.58
-3.10
-6.25
-9.66
-11.95
-12.56
-12.28
-12.83
-15.96
-22.28
-30.87
-39.72
-46.68
-50.66
-51.95
-51.89
-51.92
-52.69
-53.78
-54.05
-52.43
-48.47
-42.57
-35.63
-28.41
-21.51
-15.23
-9.96
-6.21
-4.49
-4.80
-6.44
-8.11
-8.39
-6.49
-2.48
2.88
8.67
14.22
19.38
24.26
28.87
33.05
36.56
39.41
41.99
44.97
48.97
54.35
61.01
68.47
75.94
82.38
86.71
88.08
86.23
81.81
76.24
71.22
68.12
67.65
69.76
73.93
79.22
84.25
87.17
86.18
80.37
70.50
59.05
49.09
42.81
40.12
38.44
33.78
22.33
1.86
-27.70
-64.41
-104.82
-144.66
-179.49
-205.92
-222.86
-232.18
-237.89
-243.98
-252.29
-261.61
-269.19
-273.54
-276.68
-284.27
-303.40
-339.42
-393.13
-459.88
-530.73
-594.89
-642.28
-665.66
-661.95
-632.63
-583.07
-521.08
-454.75
-390.62
-332.70
-282.65
-240.95
-207.53
-181.93
-162.95
-148.34
-135.08
-120.37
-102.67
-82.13
-60.28
-39.32
-20.98
-5.89
6.50
17.58
28.96
41.76
56.31
72.05
87.81
102.36
114.85
125.11
133.67
141.59
149.98
159.75
171.40
185.06
200.44
216.74
232.44
245.44
253.53
255.41
251.48
244.18
237.21
234.41
238.36
249.42
265.67
283.46
298.47
306.94
306.74
297.85
282.39
263.88
246.03
231.66
222.02
216.97
215.70
217.33
221.12
226.13
230.87
233.44
232.17
226.56
217.65
207.72
199.32
194.12
192.37
192.86
193.62
192.78
189.32
183.22
175.33
166.87
158.96
152.36
147.28
143.55
140.80
138.62
136.69
134.88
133.20
131.82
131.08
131.40
133.23
136.82
142.03
148.36
154.97
161.02
165.94
169.67
172.55
175.22
178.19
181.37
183.78
183.54
178.20
165.53
144.46
115.76
82.23
47.97
17.22
-6.96
-23.46
-33.22
-38.39
-41.24
-43.15
-44.13
-43.03
-38.28
-28.91
-15.34
0.54
15.71
27.11
32.60
31.63
25.29
15.64
4.90
-5.43
-15.07
-24.96
-36.89
-52.73
-73.84
-100.52
-132.09
-167.29
-204.97
-244.74
-287.34
-334.43
-387.67
-447.12
-509.80
-569.14
-616.03
-641.38
-639.37
-609.68
-557.90
-493.53
-426.66
-364.76
-311.17
-265.44
-225.23
-188.20
-153.20
-120.39
-90.46
-64.01
-41.05
-21.22
-4.12
10.46
22.38
31.51
38.23
43.53
48.84
55.43
63.76
73.20
82.27
89.41
93.67
95.06
94.53
93.50
93.46
95.57
100.53
108.32
118.16
128.55
137.71
144.07
146.82
146.09
142.72
137.86
132.54
127.37
122.60
118.19
113.79
108.91
102.97
95.51
86.53
76.53
66.41
57.15
49.43
43.40
38.81
35.19
32.14
29.37
26.67
23.84
20.64
16.92
12.70
8.14
3.48
-1.24
-6.15
-11.44
-17.11
-22.69
-27.33
-30.09
-30.37
-28.17
-24.06
-18.79
-13.04
-7.16
-1.28
4.50
10.00
14.93
19.16
22.75
25.89
28.67
30.92
32.21
32.15
30.62
27.94
24.78
21.80
19.47
17.89
16.97
16.52
16.41
16.53
16.62
16.35
15.23
12.97
9.62
5.59
1.51
-2.03
-4.72
-6.61
-8.01
-9.29
-10.67
-12.14
-13.49
-14.35
-14.28
-12.87
-9.87
-5.23
0.88
8.11
16.02
24.16
32.15
39.69
46.56
52.65
57.90
62.28
65.64
67.74
68.25
66.94
63.87
59.55
54.78
50.42
46.99
44.53
42.71
41.06
39.27
37.29
35.19
32.81
29.57
24.43
16.21
4.07
-12.07
-31.35
-52.25
-72.96
-91.83
-107.59
-119.39
-126.75
-129.57
-128.23
-123.59
-116.85
-109.14
-101.08
-92.58
-82.98
-71.56
-57.99
-42.58
-26.36
-10.69
3.04
13.76
20.79
23.98
23.71
20.81
16.28
11.09
6.00
1.57
-1.79
-3.62
-3.44
-0.86
4.12
11.08
19.26
27.80
35.99
43.41
49.83
55.16
59.22
61.83
62.77
61.85
59.03
54.36
48.06
40.52
32.26
23.78
15.54
7.78
0.57
-6.09
-12.16
-17.49
-21.89
-25.25
-27.72
-29.65
-31.54
-33.79
-36.52
-39.45
-42.12
-44.03
-44.84
-44.45
-42.94
-40.48
-37.26
-33.58
-30.00
-27.27
-26.07
-26.57
-28.04
-28.89
-27.30
-22.08
-13.34
-2.62
7.89
16.43
22.47
26.79
30.82
35.69
41.55
47.59
52.63
55.83
57.08
56.92
56.06
55.09
54.05
52.69
50.58
47.42
43.20
38.19
32.84
27.57
22.59
17.77
12.79
7.35
1.28
-5.41
-12.64
-20.32
-28.29
-36.10
-43.00
-47.98
-50.24
-49.64
-46.85
-43.10
-39.53
-36.66
-34.15
-31.20
-27.14
-22.00
-16.63
-12.17
-9.51
-8.72
-9.08
-9.43
-8.87
-7.11
-4.57
-1.88
0.45
2.43
4.46
6.94
9.96
13.10
15.64
16.90
16.55
14.74
12.06
9.26
6.98
5.54
4.88
4.56
4.07
2.94
1.10
-1.21
-3.55
-5.49
-6.79
-7.48
-7.74
-7.73
-7.49
-6.98
-6.15
-5.04
-3.84
-2.80
-2.21
-2.23
-2.79
-3.61
-4.27
-4.31
-3.46
-1.70
0.67
3.17
5.34
6.92
7.93
8.63
9.28
10.08
10.98
11.78
12.30
12.39
12.06
11.43
10.63
9.84
9.08
8.32
7.46
6.37
5.02
3.51
2.10
1.05
0.52
0.28
-0.16
-1.37
-3.77
-7.32
-11.50
-15.56
-18.79
-20.79
-21.53
-21.25
-20.29
-18.89
-17.20
-15.29
-13.29
-11.40
-9.84
-8.72
-7.95
-7.18
-5.91
-3.72
-0.44
3.74
8.44
13.23
17.77
21.87
25.29
27.78
29.07
28.97
27.51
24.92
21.50
17.50
13.08
8.31
3.25
-1.94
-6.99
-11.66
-15.75
-19.12
-21.60
-23.08
-23.54
-23.19
-22.45
-21.86
-21.85
-22.55
-23.77
-24.96
-25.59
-25.22
-23.75
-21.39
-18.56
-15.71
-13.19
-11.15
-9.63
-8.52
-7.63
-6.73
-5.61
-4.16
-2.45
-0.72
0.67
1.43
1.44
0.79
-0.24
-1.35
-2.22
-2.64
-2.47
-1.72
-0.50
0.92
2.14
2.84
2.84
2.31
1.54
0.88
0.52
0.38
0.19
-0.27
-1.03
-1.86
-2.33
-2.11
-1.13
0.36
1.91
3.10
3.90
4.52
5.25
6.19
7.33
8.54
9.59
10.36
10.91
11.55
12.55
13.91
15.28
16.29
16.67
16.39
15.60
14.62
13.90
13.58
13.39
12.70
11.30
9.40
7.56
6.29
5.88
6.85
9.16
12.06
14.02
14.55
13.90
12.77
11.82
11.57
13.51
18.28
25.14
31.44
36.40
40.42
44.62
49.75
56.10
65.34
77.89
92.38
104.77
114.24
121.85
129.74
139.76
153.54
174.98
206.08
245.18
285.09
320.56
347.87
365.34
373.03
356.42
312.02
249.64
199.96
166.79
145.79
128.70
112.47
95.91
78.75
63.45
51.02
39.96
25.08
5.22
-18.30
-42.73
-65.91
-86.53
-102.37
-113.05
-120.51
-129.69
-142.39
-158.24
-175.49
-192.59
-208.45
-221.42
-231.14
-238.90
-248.08
-260.50
-276.97
-297.37
-320.97
-345.72
-367.61
-382.09
-385.67
-377.56
-358.76
-332.17
-301.68
-271.04
-242.79
-217.66
-195.31
-175.09
-156.64
-139.54
-123.26
-107.26
-91.13
-74.82
-58.74
-43.72
-30.83
-21.02
-14.73
-11.75
-11.16
-11.67
-12.06
-11.54
-10.02
-7.83
-5.43
-3.10
-0.76
1.97
5.44
9.92
15.54
22.21
29.71
37.53
44.85
50.68
54.27
55.40
54.65
53.15
52.04
51.95
52.75
53.77
54.23
53.75
52.41
50.55
48.50
46.26
43.74
40.95
38.13
35.80
34.40
34.04
34.41
34.90
34.86
33.89
31.91
29.12
25.91
22.74
20.11
18.34
17.51
17.28
17.02
16.10
14.16
11.37
8.27
5.56
3.59
2.20
0.91
-0.88
-3.44
-6.57
-9.71
-12.25
-13.79
-14.35
-14.35
-14.45
-15.29
-17.23
-20.12
-23.36
-26.10
-27.59
-27.40
-25.72
-23.19
-20.68
-18.91
-18.08
-17.79
-17.09
-14.85
-10.31
-3.49
4.57
12.11
17.24
18.79
16.96
13.50
11.04
12.05
17.69
27.10
37.81
46.87
52.63
55.70
58.97
66.41
81.59
106.60
141.60
184.80
232.30
277.98
313.73
330.99
323.64
290.89
238.57
177.22
117.84
67.19
25.50
-11.94
-50.60
-92.37
-134.07
-169.29
-192.39
-201.74
-200.37
-193.81
-186.78
-180.93
-174.80
-165.83
-152.83
-137.28
-122.81
-113.23
-110.47
-113.50
-118.92
-122.69
-122.05
-116.55
-107.95
-98.95
-91.71
-86.86
-83.44
-79.71
-74.22
-66.50
-57.29
-48.01
-40.10
-34.31
-30.60
-28.14
-25.78
-22.52
-17.84
-11.83
-5.02
1.94
8.49
14.34
19.42
23.83
27.66
30.98
33.87
36.44
38.80
41.00
42.95
44.42
45.09
44.70
43.13
40.55
37.40
34.28
31.83
30.46
30.16
30.51
30.85
30.64
29.65
28.09
26.36
24.84
23.53
22.17
20.46
18.42
16.43
15.11
14.94
15.96
17.74
19.51
20.58
20.52
19.28
17.10
14.33
11.25
8.00
4.50
0.59
-3.89
-8.93
-14.24
-19.26
-23.36
-26.12
-27.49
-27.71
-27.16
-25.98
-24.10
-21.33
-17.69
-13.53
-9.54
-6.30
-4.00
-2.36
-0.73
1.45
4.38
7.84
11.38
14.63
17.48
20.02
22.38
24.56
26.44
27.87
28.84
29.46
29.93
30.42
30.93
31.35
31.59
31.56
31.23
30.67
29.88
28.78
27.25
25.13
22.28
18.70
14.58
10.35
6.62
3.90
2.33
1.66
1.29
0.69
-0.25
-1.15
-1.45
-0.78
0.73
2.57
4.14
5.09
5.35
5.06
4.40
3.39
2.04
0.49
-0.99
-2.05
-2.50
-2.38
-1.88
-1.23
-0.63
-0.22
-0.18
-0.70
-1.85
-3.38
-4.73
-5.28
-4.69
-3.09
-1.04
0.76
1.84
2.09
1.76
1.17
0.57
0.03
-0.47
-0.87
-0.96
-0.43
1.02
3.41
6.46
9.63
12.35
14.21
15.21
15.68
16.15
17.07
18.58
20.37
21.95
22.96
23.30
23.26
23.21
23.33
23.47
23.20
22.14
20.21
17.67
15.01
12.64
10.72
9.07
7.31
5.16
2.55
-0.31
-3.03
-5.26
-6.84
-7.86
-8.62
-9.51
-10.89
-12.93
-15.55
-18.45
-21.33
-23.94
-26.16
-27.94
-29.12
-29.46
-28.63
-26.57
-23.57
-20.35
-17.82
-16.62
-16.89
-18.14
-19.45
-19.93
-19.07
-16.86
-13.79
-10.59
-7.86
-5.91
-4.69
-3.94
-3.44
-3.15
-3.15
-3.50
-4.04
-4.32
-3.82
-2.18
0.52
3.74
6.70
8.73
9.56
9.38
8.80
8.50
8.99
10.45
12.58
14.80
16.45
17.09
16.63
15.40
13.74
12.02
10.42
9.08
8.12
7.79
8.30
9.61
11.43
13.18
14.38
14.81
14.50
13.71
12.63
11.41
10.07
8.75
7.61
6.78
6.21
5.54
4.34
2.34
-0.36
-3.38
-6.20
-8.50
-10.32
-11.86
-13.35
-14.83
-16.21
-17.46
-18.66
-19.91
-21.26
-22.44
-22.98
-22.37
-20.44
-17.49
-14.17
-11.17
-8.82
-7.03
-5.48
-3.88
-2.22
-0.71
0.41
1.06
1.37
1.62
1.98
2.49
3.17
4.01
5.13
6.61
8.34
10.01
11.23
11.72
11.60
11.20
10.82
10.52
10.08
9.24
8.03
6.86
6.33
6.80
8.17
9.86
11.25
12.01
12.28
12.51
13.03
13.80
14.47
14.62
14.02
12.78
11.27
9.85
8.73
7.90
7.25
6.69
6.19
5.75
5.34
4.84
4.08
2.96
1.46
-0.27
-2.00
-3.49
-4.65
-5.54
-6.37
-7.46
-9.11
-11.41
-14.24
-17.20
-19.76
-21.45
-21.98
-21.29
-19.53
-16.98
-13.88
-10.45
-6.87
-3.38
-0.34
1.93
3.22
3.63
3.48
3.26
3.42
4.19
5.56
7.23
8.81
9.83
9.88
8.78
6.65
3.97
1.51
0.05
0.07
1.57
4.07
6.90
9.47
11.57
13.16
14.26
14.79
14.62
13.79
12.60
11.65
11.39
11.91
12.67
12.85
11.77
9.26
5.82
2.37
-0.18
-1.30
-1.01
0.20
1.68
2.80
3.24
3.00
2.35
1.65
1.17
1.01
1.07
1.13
1.03
0.73
0.32
-0.12
-0.64
-1.43
-2.74
-4.77
-7.51
-10.63
-13.67
-16.16
-17.79
-18.47
-18.33
-17.61
-16.50
-15.11
-13.49
-11.72
-10.01
-8.64
-7.82
-7.58
-7.62
-7.39
-6.33
-4.12
-0.90
2.77
6.20
8.94
10.93
12.58
14.33
16.40
18.54
20.27
21.05
20.66
19.23
17.09
14.62
12.05
9.52
7.08
4.81
2.83
1.26
0.22
-0.20
0.06
0.97
2.33
3.81
5.08
5.88
6.25
6.46
6.86
7.65
8.74
9.78
10.33
10.17
9.42
8.41
7.43
6.55
5.63
4.41
2.78
0.85
-1.02
-2.54
-3.58
-4.34
-5.26
-6.71
-8.84
-11.41
-14.05
-16.34
-18.14
-19.53
-20.71
-21.71
-22.27
-22.01
-20.57
-17.95
-14.71
-11.65
-9.55
-8.64
-8.57
-8.54
-7.84
-6.19
-3.89
-1.50
0.49
1.96
3.03
3.82
4.28
4.23
3.57
2.50
1.52
1.07
1.31
2.06
2.97
3.96
5.24
7.18
9.88
12.96
15.62
17.07
17.01
15.77
14.04
12.47
11.24
10.08
8.51
6.34
3.82
1.52
0.04
-0.42
-0.09
0.57
1.13
1.43
1.53
1.59
1.61
1.46
0.93
-0.01
-1.24
-2.46
-3.43
-4.01
-4.26
-4.34
-4.44
-4.69
-5.12
-5.76
-6.61
-7.70
-9.01
-10.51
-12.08
-13.51
-14.60
-15.19
-15.24
-14.85
-14.24
-13.63
-13.14
-12.71
-12.12
-11.14
-9.60
-7.49
-4.91
-2.03
0.95
3.93
6.82
9.63
12.34
14.93
17.33
19.54
21.59
23.63
25.85
28.44
31.48
34.85
38.24
41.28
43.73
45.68
47.51
49.74
52.70
56.35
60.24
63.69
66.19
67.52
67.88
67.62
67.10
66.53
65.98
65.49
65.13
64.89
64.62
63.95
62.51
60.15
57.15
54.24
52.39
52.36
54.21
57.18
59.86
60.74
58.87
54.34
48.19
41.96
36.74
32.70
28.95
24.11
17.02
7.24
-5.15
-20.05
-37.47
-57.22
-78.13
-97.57
-111.85
-117.51
-112.87
-98.81
-78.49
-55.71
-33.39
-12.63
6.90
25.75
43.52
58.49
68.05
69.88
63.19
49.15
30.67
11.13
-7.01
-23.27
-39.09
-56.73
-77.53
-100.88
-124.46
-145.58
-162.63
-175.77
-186.17
-194.55
-199.99
-200.16
-192.79
-177.62
-157.42
-137.35
-123.06
-118.25
-123.15
-134.54
-147.11
-155.42
-155.78
-147.17
-131.09
-110.76
-89.71
-70.80
-55.42
-43.69
-34.86
-27.96
-22.33
-17.66
-13.97
-11.20
-9.11
-7.28
-5.29
-2.92
-0.30
2.26
4.54
6.59
8.80
11.76
15.94
21.40
27.65
33.76
38.75
42.03
43.62
44.13
44.42
45.21
46.72
48.57
50.07
50.48
49.43
46.95
43.45
39.58
35.95
33.18
31.78
32.13
34.40
38.42
43.67
49.34
54.56
58.63
61.26
62.50
62.65
62.06
60.97
59.63
58.25
57.22
56.93
57.73
59.82
63.12
67.34
71.99
76.58
80.68
84.13
86.99
89.58
92.34
95.62
99.48
103.64
107.44
110.21
111.42
110.91
108.93
106.12
103.24
101.06
100.09
100.37
101.41
102.22
101.66
98.90
93.82
87.10
80.01
73.96
69.90
67.99
67.55
67.35
66.08
62.84
57.29
49.75
40.90
31.45
21.80
11.95
1.44
-10.39
-24.17
-40.16
-57.99
-76.54
-94.11
-108.67
-118.47
-122.47
-120.63
-113.91
-104.00
-92.89
-82.42
-73.89
-67.66
-63.00
-58.14
-50.81
-39.01
-21.89
-0.14
24.34
49.16
72.47
93.50
112.45
130.01
146.73
162.78
177.90
191.69
203.62
213.14
219.63
222.49
221.46
216.76
209.01
198.86
186.46
171.16
151.79
127.29
97.46
63.48
27.65
-7.16
-38.46
-64.79
-85.98
-102.94
-117.25
-130.55
-144.10
-158.54
-174.15
-190.71
-207.80
-224.80
-241.21
-257.22
-274.30
-295.37
-323.89
-361.88
-407.71
-455.02
-493.70
-513.15
-506.05
-471.08
-413.12
-340.91
-263.73
-188.73
-120.03
-59.24
-6.79
37.40
73.84
103.80
129.29
152.59
175.25
197.59
218.64
236.56
249.32
255.58
255.23
249.56
240.98
232.23
225.43
221.45
219.72
218.71
216.67
212.34
205.36
196.13
185.45
174.23
163.28
153.33
144.97
138.64
134.32
131.57
129.57
127.43
124.48
120.38
114.96
107.74
97.62
82.90
61.94
34.13
0.80
-34.81
-68.47
-96.57
-117.62
-132.88
-145.93
-161.27
-182.92
-213.22
-252.41
-298.87
-349.31
-399.23
-443.39
-476.70
-495.22
-497.28
-483.77
-457.64
-422.63
-381.66
-336.15
-286.61
-233.92
-180.55
-130.40
-87.22
-52.51
-24.32
2.20
32.33
69.06
111.20
153.71
189.75
213.45
221.81
215.10
195.83
167.08
131.16
89.36
42.20
-9.82
-65.86
-124.62
-185.10
-247.37
-312.75
-382.85
-457.42
-532.54
-600.25
-650.37
-674.14
-667.69
-633.68
-580.08
-516.86
-452.27
-390.85
-333.52
-279.49
-228.22
-180.43
-137.65
-101.11
-70.84
-45.60
-23.70
-3.87
14.22
29.88
42.08
50.26
54.92
57.66
60.70
66.06
74.82
86.74
100.48
114.34
127.06
138.45
149.49
161.90
177.34
196.67
219.56
244.61
270.13
294.80
318.28
341.31
365.31
391.81
422.10
457.01
496.69
540.34
585.83
629.57
667.10
694.28
708.69
710.51
702.35
687.88
670.16
650.44
628.08
601.52
569.56
532.17
490.34
445.39
398.21
349.02
297.73
244.57
190.40
136.46
83.79
32.46
-18.62
-71.33
-127.39
-187.43
-250.57
-314.67
-377.16
-435.97
-490.23
-540.34
-587.67
-634.22
-682.01
-732.22
-784.07
-833.77
-874.50
-897.81
-896.34
-866.65
-810.89
-736.25
-652.43
-568.45
-490.26
-420.19
-357.97
-302.36
-252.32
-207.22
-166.44
-128.96
-93.51
-58.99
-24.98
8.24
39.99
69.67
97.23
123.37
149.31
176.39
205.26
235.40
264.65
289.62
306.82
314.20
312.29
304.32
295.04
288.75
287.50
290.39
294.41
296.19
293.73
287.14
277.97
267.98
257.81
246.76
233.40
216.86
197.71
177.97
160.21
146.29
136.44
129.15
122.03
113.04
101.55
88.54
75.97
65.71
58.61
54.13
50.85
47.28
42.65
37.27
32.17
28.50
26.84
26.88
27.50
27.27
25.11
20.67
14.51
7.78
1.74
-2.78
-5.64
-7.35
-8.66
-10.20
-12.17
-14.41
-16.63
-18.69
-20.74
-23.13
-26.10
-29.63
-33.24
-36.17
-37.57
-36.83
-33.81
-28.91
-22.89
-16.61
-10.79
-5.86
-1.88
1.28
3.81
5.83
7.42
8.61
9.49
10.20
10.95
11.91
13.05
14.17
14.97
15.19
14.80
14.07
13.46
13.43
14.17
15.50
16.88
17.69
17.45
16.09
13.86
11.25
8.70
6.51
4.75
3.47
2.70
2.57
3.21
4.66
6.77
9.15
11.25
12.63
13.07
12.62
11.64
10.58
9.74
9.16
8.61
7.69
6.05
3.58
0.47
-2.87
-5.96
-8.45
-10.21
-11.32
-12.08
-12.87
-14.04
-15.90
-18.60
-22.09
-26.13
-30.26
-33.80
-35.99
-36.16
-33.93
-29.49
-23.57
-17.29
-11.82
-7.99
-6.02
-5.55
-5.85
-6.18
-5.93
-4.89
-3.28
-1.62
-0.41
0.09
-0.08
-0.80
-1.90
-3.15
-4.32
-5.26
-5.91
-6.27
-6.48
-6.96
-8.34
-11.31
-15.86
-21.39
-27.02
-31.97
-35.85
-38.70
-40.98
-43.46
-46.90
-50.71
-54.03
-56.55
-58.98
-62.64
-68.69
-77.76
-90.11
-105.93
-122.70
-137.63
-148.85
-156.06
-159.68
-159.60
-154.97
-144.96
-129.67
-106.56
-74.64
-36.30
2.42
34.90
57.71
72.30
83.84
98.71
127.31
176.96
248.79
337.22
433.83
532.27
630.15
727.90
792.83
798.28
736.80
627.65
501.55
380.21
270.07
167.97
69.14
-27.74
-114.15
-179.42
-217.29
-230.04
-226.49
-216.49
-206.85
-200.30
-196.73
-191.41
-180.75
-164.93
-148.09
-135.19
-128.64
-127.63
-129.50
-131.60
-130.25
-123.62
-112.81
-101.65
-94.54
-93.74
-98.11
-103.30
-103.31
-91.43
-63.58
-20.16
33.80
90.55
142.11
181.97
206.01
212.59
202.36
177.39
140.30
93.39
39.62
-15.65
-67.14
-111.26
-146.71
-174.51
-197.24
-218.15
-240.28
-265.89
-296.59
-333.32
-375.77
-421.41
-464.90
-498.66
-514.73
-507.75
-476.77
-425.63
-361.55
-292.31
-223.78
-158.80
-97.86
-40.42
12.97
61.42
105.10
146.60
190.75
242.81
305.68
377.54
451.21
513.69
551.86
558.07
533.66
488.07
434.46
384.62
345.29
317.16
293.53
266.18
230.35
187.24
142.12
100.64
66.24
39.03
16.34
-10.00
-48.22
-102.45
-170.62
-247.20
-327.54
-409.97
-494.93
-558.31
-575.45
-535.40
-450.89
-348.65
-255.26
-188.91
-155.87
-148.94
-150.63
-145.28
-124.91
-91.56
-53.92
-21.98
-1.27
9.08
15.19
24.01
36.26
48.02
54.46
55.03
53.06
53.92
61.92
78.71
103.30
130.90
155.84
174.64
188.02
196.12
203.75
214.13
226.31
234.96
231.62
209.49
167.69
112.72
55.59
7.49
-25.60
-44.35
-53.96
-61.18
-70.51
-82.90
-96.80
-110.85
-125.37
-142.80
-164.97
-190.56
-214.29
-228.35
-225.85
-204.17
-166.59
-120.62
-75.37
-38.66
-15.93
-11.04
-26.60
-63.02
-116.75
-179.30
-238.25
-281.16
-299.87
-291.32
-259.77
-215.02
-167.64
-124.82
-88.62
-57.34
-28.41
-0.39
26.59
51.45
73.74
94.37
115.32
138.54
165.16
195.16
227.18
258.91
287.20
308.95
321.87
325.08
319.13
305.65
286.85
265.12
242.87
222.27
205.43
194.21
189.66
191.06
195.67
198.88
195.36
180.67
152.39
110.46
56.61
-6.36
-74.99
-144.70
-209.23
-260.84
-291.88
-297.41
-277.40
-237.02
-184.71
-128.88
-74.96
-24.30
24.60
73.85
124.50
176.23
228.42
281.27
335.85
393.16
452.86
512.82
569.79
620.14
660.83
689.52
704.23
703.37
686.12
653.21
607.35
552.86
494.40
435.68
378.67
323.92
271.49
221.82
175.92
134.88
99.10
68.03
40.40
14.96
-8.98
-31.28
-51.08
-67.44
-79.89
-88.74
-95.09
-100.40
-105.98
-112.52
-119.91
-127.38
-133.96
-139.05
-142.76
-145.95
-149.93
-155.85
-164.20
-174.55
-185.69
-196.17
-204.92
-211.82
-217.75
-224.26
-232.81
-244.16
-257.96
-273.14
-288.42
-303.09
-317.57
-333.41
-352.90
-378.78
-413.80
-460.36
-519.51
-589.76
-666.10
-740.16
-802.06
-843.28
-859.58
-852.16
-826.64
-790.39
-749.57
-707.50
-664.76
-620.64
-574.63
-527.12
-479.01
-430.92
-382.72
-333.81
-283.78
-232.91
-182.25
-133.17
-86.80
-43.39
-2.37
37.34
76.85
116.79
157.09
197.07
235.84
272.77
308.00
342.64
378.66
417.95
461.01
505.99
548.60
583.20
604.90
611.30
603.34
584.78
560.59
535.21
511.64
491.30
474.54
461.26
451.10
443.32
436.71
429.89
421.79
412.28
402.28
393.38
387.22
384.89
386.49
391.17
397.45
403.63
408.18
409.80
407.43
400.19
387.29
368.09
342.28
310.07
272.34
230.53
186.35
141.37
96.64
52.49
8.72
-34.88
-78.21
-120.63
-161.27
-199.59
-235.85
-271.20
-307.33
-345.68
-386.64
-429.35
-472.03
-512.63
-549.75
-583.18
-613.85
-643.56
-674.62
-709.52
-750.33
-797.66
-849.35
-899.75
-940.48
-962.69
-960.27
-932.25
-883.17
-821.09
-754.25
-688.21
-624.83
-563.37
-502.51
-442.04
-383.12
-327.30
-275.16
-225.74
-176.90
-126.56
-73.73
-19.06
35.29
86.75
133.30
174.33
210.78
244.77
278.85
315.11
354.66
397.15
440.73
482.24
517.92
544.69
561.26
568.77
570.00
568.08
564.61
559.21
550.21
536.13
516.60
492.14
463.21
429.79
391.97
351.07
310.17
273.07
241.97
215.56
188.87
155.68
111.71
56.80
-5.46
-70.29
-134.63
-198.59
-264.22
-332.78
-402.03
-465.61
-514.53
-540.28
-537.92
-507.76
-455.47
-389.72
-319.60
-251.95
-190.22
-134.77
-84.75
-39.84
-1.22
28.88
48.80
58.94
62.21
62.97
65.07
70.10
76.97
83.36
87.53
89.77
92.37
98.08
108.35
122.44
137.89
151.62
161.29
165.31
162.73
153.03
136.29
113.30
85.44
54.00
19.70
-16.71
-53.30
-85.82
-108.33
-115.43
-104.90
-79.33
-45.53
-11.72
15.46
32.60
39.32
36.67
25.86
8.37
-13.27
-35.11
-52.27
-60.53
-57.99
-45.52
-26.14
-3.78
17.97
36.27
49.13
55.48
55.26
49.67
41.30
33.60
29.78
31.76
39.45
51.10
64.20
76.51
86.82
94.92
101.16
106.27
111.75
120.34
135.54
159.99
193.03
229.29
259.31
272.54
261.49
225.00
169.00
104.26
42.59
-6.99
-40.18
-57.42
-62.16
-58.68
-50.62
-40.27
-28.95
-17.59
-7.44
-0.03
3.29
2.19
-2.20
-7.67
-11.90
-13.51
-12.60
-10.53
-8.97
-8.85
-9.75
-10.07
-7.73
-1.12
10.16
25.22
42.23
59.17
74.65
88.18
100.15
111.32
122.35
133.45
144.44
154.90
164.57
173.47
181.96
190.60
199.99
210.65
222.87
236.70
251.89
267.91
284.13
299.95
314.98
329.11
342.49
355.32
367.74
379.64
390.78
400.86
409.63
416.69
421.21
421.68
415.95
401.77
377.64
343.57
301.39
254.27
205.75
158.60
114.04
71.73
30.47
-10.84
-52.34
-93.12
-131.53
-166.31
-197.24
-225.35
-252.66
-281.18
-312.08
-345.50
-380.70
-416.50
-451.45
-483.75
-511.30
-532.22
-545.82
-553.49
-558.72
-566.15
-579.68
-601.00
-629.12
-661.35
-694.99
-728.89
-764.01
-802.29
-844.49
-888.17
-927.03
-952.19
-955.21
-931.36
-881.49
-811.93
-731.89
-650.01
-571.83
-499.16
-431.48
-367.94
-308.93
-255.86
-210.07
-171.50
-138.33
-107.85
-77.83
-47.51
-17.84
9.12
31.49
48.53
61.08
71.13
80.94
92.08
104.85
118.40
131.28
142.32
151.25
158.81
166.40
175.35
186.32
199.14
212.92
226.67
239.89
252.78
266.18
281.07
298.07
317.16
337.73
359.05
380.49
401.88
423.26
444.73
466.35
488.40
511.73
537.64
566.87
598.32
628.17
650.37
658.51
648.37
619.56
575.60
522.30
465.38
408.64
353.81
301.23
251.04
203.75
159.81
118.68
78.45
36.57
-8.24
-54.16
-95.96
-126.36
-138.92
-131.23
-106.50
-72.82
-40.38
-17.78
-9.28
-14.20
-28.19
-45.78
-62.36
-75.17
-82.98
-85.36
-82.48
-75.47
-67.27
-62.97
-68.96
-90.88
-130.72
-185.01
-245.26
-300.49
-341.09
-361.80
-362.46
-346.49
-318.16
-280.45
-234.51
-180.65
-119.92
-54.92
10.09
69.99
119.76
155.64
176.08
182.59
179.64
173.31
168.74
167.63
167.23
161.81
145.67
116.24
75.30
28.05
-19.17
-60.90
-93.37
-114.21
-122.18
-117.18
-100.77
-76.13
-47.28
-17.72
10.71
37.92
64.54
90.78
115.76
138.05
156.72
171.92
184.45
194.95
203.15
207.91
208.07
203.13
193.54
180.64
165.94
150.71
136.25
124.48
118.15
119.98
130.80
147.90
165.54
176.29
173.66
154.36
119.33
73.03
21.21
-31.62
-83.48
-133.27
-180.40
-224.73
-267.46
-311.15
-358.20
-408.96
-460.31
-505.61
-534.57
-537.61
-510.19
-455.62
-383.87
-306.87
-234.13
-170.70
-117.37
-69.63
-20.95
34.31
98.85
172.92
256.47
349.24
449.32
536.44
584.76
575.65
511.65
414.29
310.05
219.28
151.80
107.49
79.19
60.33
47.51
40.45
39.50
42.13
44.61
43.27
35.73
20.97
2.00
-16.22
-29.10
-35.44
-37.92
-41.18
-50.43
-66.11
-88.73
-116.51
-146.02
-173.30
-195.18
-209.80
-216.22
-214.63
-206.36
-194.29
-180.75
-166.84
-152.52
-137.25
-120.88
-103.75
-86.79
-71.04
-57.65
-46.80
-37.85
-29.91
-22.45
-15.45
-9.09
-3.56
1.19
5.00
7.83
9.79
11.01
11.72
12.22
12.71
13.22
13.56
13.29
12.12
10.11
7.70
5.48
3.92
3.11
2.79
2.60
2.35
2.22
2.73
4.33
7.07
10.50
13.78
16.00
16.61
15.55
13.27
10.45
7.69
5.37
3.51
1.83
0.02
-2.15
-4.66
-7.20
-9.27
-10.43
-10.39
-9.12
-6.84
-3.83
-0.39
3.24
6.84
10.11
12.82
14.75
15.92
16.60
17.28
18.49
20.60
23.59
27.07
30.49
33.50
36.14
38.89
42.48
47.50
54.03
61.55
69.21
76.22
82.21
87.42
92.49
97.86
103.73
110.08
116.71
123.36
129.89
136.30
143.01
150.40
158.56
167.37
176.57
185.91
194.83
202.34
206.98
207.10
201.15
187.62
166.22
138.31
106.50
73.59
41.55
10.94
-18.89
-49.58
-84.25
-124.16
-167.02
-206.94
-236.80
-250.84
-246.31
-223.32
-185.18
-140.59
-98.09
-63.70
-40.36
-30.06
-34.82
-55.68
-90.28
-134.34
-187.06
-245.64
-303.83
-352.94
-386.27
-402.39
-404.84
-398.73
-391.48
-396.74
-423.99
-474.65
-542.81
-621.50
-707.20
-799.41
-895.89
-942.50
-900.18
-766.27
-578.23
-383.69
-215.39
-87.21
-7.75
41.32
74.86
95.56
103.36
100.46
93.82
90.70
95.87
111.43
138.91
175.54
211.51
237.96
250.92
252.64
248.35
242.77
238.95
239.39
243.26
245.28
240.99
229.11
212.23
194.47
179.23
168.35
162.96
161.91
161.97
160.57
157.02
152.75
149.92
150.11
153.85
161.11
170.73
180.91
190.42
199.00
207.44
217.08
229.31
245.17
264.97
287.44
309.76
327.92
337.82
336.66
324.07
302.23
274.95
246.19
218.74
193.80
171.35
151.04
132.70
116.42
102.14
89.39
77.34
65.31
53.18
41.56
31.33
23.25
17.45
13.44
10.37
7.39
3.91
-0.32
-5.23
-10.51
-15.65
-20.06
-23.34
-25.40
-26.53
-27.29
-28.23
-29.58
-31.21
-32.76
-33.95
-34.70
-35.24
-35.89
-36.98
-38.60
-40.69
-42.93
-44.92
-46.16
-46.16
-44.56
-41.26
-36.48
-30.81
-25.01
-19.87
-15.97
-13.51
-12.25
-11.67
-11.13
-10.14
-8.46
-6.18
-3.59
-1.07
1.06
2.55
3.26
3.21
2.58
1.72
1.08
1.02
1.72
3.11
4.93
6.91
8.76
10.23
11.07
11.03
10.01
8.10
5.77
3.65
2.37
2.25
3.20
4.70
6.06
6.49
5.46
2.78
-1.28
-6.03
-10.59
-14.27
-16.72
-18.12
-18.92
-19.60
-20.39
-21.31
-22.19
-22.95
-23.72
-24.69
-26.07
-27.83
-29.71
-31.36
-32.48
-32.93
-32.79
-32.38
-32.09
-32.28
-33.09
-34.35
-35.65
-36.43
-36.28
-35.10
-33.06
-30.49
-27.73
-25.02
-22.40
-19.86
-17.36
-14.88
-12.37
-9.85
-7.32
-4.83
-2.53
-0.54
1.01
2.04
2.58
2.71
2.58
2.40
2.44
2.93
4.04
5.76
7.88
10.04
11.83
12.95
13.28
12.94
12.23
11.52
11.09
11.05
11.31
11.62
11.81
11.77
11.64
11.54
11.56
11.55
11.30
10.65
9.74
8.95
8.69
9.19
10.25
11.35
11.87
11.37
9.82
7.57
5.19
3.15
1.72
0.90
0.50
0.30
0.06
-0.33
-0.91
-1.74
-2.86
-4.32
-6.06
-7.93
-9.66
-11.03
-11.99
-12.69
-13.46
-14.64
-16.34
-18.35
-20.21
-21.41
-21.58
-20.72
-19.07
-17.04
-15.01
-13.18
-11.55
-10.03
-8.49
-6.91
-5.33
-3.78
-2.18
-0.37
1.83
4.41
7.12
9.58
11.44
12.62
13.36
14.01
14.83
15.91
17.16
18.54
20.12
21.93
23.82
25.40
26.15
25.77
24.36
22.33
20.12
17.93
15.61
12.89
9.70
6.21
2.79
-0.27
-2.99
-5.56
-8.17
-10.79
-13.16
-14.94
-15.92
-16.06
-15.41
-14.12
-12.29
-10.07
-7.71
-5.48
-3.60
-2.20
-1.27
-0.80
-0.87
-1.63
-3.25
-5.84
-9.30
-13.35
-17.58
-21.56
-24.97
-27.71
-29.85
-31.53
-32.79
-33.51
-33.48
-32.59
-30.87
-28.56
-26.01
-23.38
-20.73
-17.96
-15.10
-12.31
-9.90
-8.13
-7.09
-6.62
-6.43
-6.27
-5.98
-5.48
-4.68
-3.54
-2.04
-0.37
1.12
2.05
2.18
1.64
0.82
0.19
0.06
0.44
1.02
1.40
1.23
0.35
-1.16
-3.12
-5.27
-7.42
-9.45
-11.35
-13.10
-14.66
-15.97
-16.97
-17.53
-17.62
-17.23
-16.50
-15.52
-14.48
-13.66
-13.47
-14.31
-16.35
-19.56
-23.75
-28.72
-34.26
-40.22
-46.41
-52.49
-58.05
-62.48
-65.60
-67.93
-70.48
-74.19
-79.37
-85.38
-90.83
-94.17
-93.51
-88.14
-78.68
-66.59
-53.23
-39.25
-24.69
-9.29
7.25
26.96
51.62
82.20
118.60
159.58
202.77
244.39
279.82
304.65
318.42
322.17
317.68
307.02
292.75
278.12
266.48
260.58
261.61
271.67
289.34
309.57
325.61
332.54
329.47
318.94
305.27
272.06
212.84
133.76
51.15
-19.35
-69.87
-99.53
-111.81
-111.49
-103.41
-89.92
-72.99
-54.77
-37.04
-20.91
-6.49
5.91
16.06
23.62
27.54
26.76
20.91
10.41
-4.44
-19.54
-33.13
-44.75
-55.06
-68.90
-90.36
-120.42
-156.35
-193.64
-228.24
-258.72
-285.62
-311.07
-343.89
-391.07
-453.85
-527.17
-602.93
-673.98
-737.25
-793.31
-803.35
-747.94
-635.25
-496.44
-362.93
-250.69
-161.67
-92.27
-37.62
6.98
39.50
58.99
67.29
67.69
62.63
53.06
40.18
28.51
25.24
31.76
46.13
64.78
84.31
101.96
120.84
143.85
173.17
208.51
242.35
264.34
267.69
249.01
214.55
177.92
154.53
155.52
181.67
220.63
251.95
256.96
227.33
169.25
100.01
39.48
3.02
-6.83
4.03
24.73
45.38
60.83
71.17
79.41
87.48
94.63
97.48
93.42
81.75
65.39
49.74
40.90
42.81
56.01
78.15
102.18
123.76
137.21
137.19
120.98
90.76
53.34
17.67
-8.19
-24.62
-35.82
-48.64
-68.27
-95.96
-128.71
-160.86
-186.29
-200.39
-197.74
-179.99
-154.32
-130.00
-114.02
-107.86
-106.83
-103.11
-89.88
-66.71
-37.01
-6.47
21.00
45.01
67.51
89.92
111.25
126.13
131.76
128.60
119.23
106.70
92.29
75.62
56.86
38.43
26.58
26.46
40.82
67.81
100.40
128.34
141.25
131.91
95.80
38.68
-28.95
-96.56
-156.41
-204.37
-237.86
-254.46
-251.59
-228.33
-187.43
-136.89
-88.16
-51.94
-33.95
-32.93
-41.99
-52.04
-55.56
-48.93
-33.64
-15.21
0.19
7.15
2.89
-11.88
-33.34
-55.71
-72.55
-78.49
-69.99
-45.53
-6.29
43.26
95.34
140.24
170.74
182.20
175.41
156.35
133.16
112.85
98.64
90.46
86.16
83.40
79.86
72.70
58.60
35.27
4.16
-29.57
-58.37
-75.60
-78.86
-71.58
-61.51
-56.76
-61.73
-74.24
-87.61
-94.71
-91.78
-80.35
-65.32
-52.21
-43.61
-37.75
-28.90
-11.11
18.44
57.14
98.78
136.75
165.71
184.21
186.83
172.65
146.17
114.64
84.04
55.20
27.79
2.72
-15.31
-18.93
-1.60
37.79
92.69
151.72
200.81
234.32
250.67
254.40
253.71
255.65
263.20
268.27
271.22
264.12
241.57
202.08
145.79
83.55
28.02
-14.13
-44.30
-65.34
-82.37
-97.86
-112.22
-124.05
-132.41
-140.73
-147.76
-157.76
-174.04
-199.00
-230.97
-265.80
-297.68
-320.81
-331.75
-329.38
-316.04
-295.32
-273.34
-256.18
-248.21
-249.84
-256.66
-261.70
-258.33
-244.41
-222.45
-199.18
-181.31
-171.45
-166.33
-158.26
-139.05
-103.61
-52.36
10.43
78.23
143.98
200.80
242.07
262.48
259.76
236.78
201.27
163.76
133.39
114.39
105.10
99.80
92.33
78.78
58.08
30.76
-2.37
-40.24
-80.55
-118.52
-147.39
-160.58
-154.81
-131.85
-97.32
-58.10
-19.40
16.61
50.75
84.12
115.98
142.95
159.77
161.96
147.21
116.26
72.42
21.02
-32.05
-81.87
-125.59
-162.70
-193.62
-219.66
-241.99
-261.54
-277.31
-287.45
-290.35
-285.67
-274.77
-258.73
-240.35
-223.80
-214.64
-213.38
-216.23
-216.71
-209.14
-190.81
-159.10
-115.64
-65.91
-19.77
19.74
54.10
86.91
119.98
153.30
191.52
237.34
289.48
338.17
381.16
420.01
458.33
498.24
541.55
597.82
673.46
766.67
859.92
941.35
1002.47
1039.71
1052.25
995.94
855.09
651.48
476.48
348.26
261.42
193.86
137.81
89.36
46.39
14.66
-2.98
-9.86
-20.83
-40.41
-67.07
-95.35
-121.99
-145.67
-160.98
-165.58
-162.10
-162.06
-168.95
-181.59
-195.91
-209.62
-221.98
-229.99
-232.64
-231.88
-234.97
-243.88
-257.46
-272.77
-288.09
-302.81
-315.49
-325.91
-335.54
-348.67
-366.86
-389.56
-414.06
-436.73
-453.34
-459.40
-452.22
-431.96
-402.33
-367.81
-332.64
-299.71
-270.33
-244.37
-221.05
-199.77
-180.37
-162.80
-146.61
-130.55
-112.79
-91.86
-67.26
-40.02
-12.16
14.31
38.29
59.91
80.00
99.16
117.07
132.38
143.35
148.71
148.34
143.25
135.15
125.70
115.98
106.32
96.53
86.35
75.92
65.82
56.88
49.87
45.15
42.65
41.94
42.47
43.73
45.27
46.66
47.50
47.51
46.69
45.24
43.45
41.50
39.38
36.90
33.93
30.61
27.26
24.21
21.57
19.01
16.00
12.09
7.17
1.52
-4.34
-10.00
-15.33
-20.47
-25.59
-30.65
-35.23
-38.63
-40.24
-39.76
-37.38
-33.64
-29.09
-24.00
-18.36
-12.10
-5.30
1.60
7.92
12.96
16.33
18.01
18.21
17.26
15.38
12.76
9.64
6.50
3.93
2.49
2.31
3.00
3.73
3.66
2.29
-0.21
-3.03
-5.16
-5.80
-4.74
-2.42
0.42
3.02
4.96
6.17
6.82
7.01
6.73
5.92
4.57
2.89
1.26
0.16
-0.06
0.71
2.22
3.95
5.28
5.58
4.59
2.45
-0.24
-2.71
-4.28
-4.67
-4.07
-3.02
-2.08
-1.64
-1.78
-2.40
-3.35
-4.46
-5.61
-6.67
-7.45
-7.85
-7.89
-7.81
-7.82
-8.04
-8.28
-8.21
-7.44
-5.84
-3.52
-0.83
1.79
4.09
5.93
7.36
8.45
9.26
9.83
10.14
10.22
10.07
9.76
9.38
9.10
9.10
9.45
9.98
10.28
9.82
8.19
5.32
1.60
-2.30
-5.67
-8.16
-9.87
-11.37
-13.44
-16.76
-21.74
-28.23
-35.56
-42.46
-47.26
-48.24
-44.24
-35.17
-22.22
-7.74
5.44
14.81
18.86
17.40
11.29
1.91
-9.42
-21.69
-34.21
-46.42
-57.72
-67.29
-74.31
-78.18
-78.79
-76.78
-73.45
-70.53
-69.55
-71.33
-75.55
-80.90
-85.65
-88.24
-87.95
-84.87
-79.53
-72.17
-62.45
-49.52
-32.62
-11.75
12.08
37.05
61.21
82.95
101.33
115.79
126.05
131.94
133.61
131.71
127.54
122.68
118.54
116.00
115.11
115.35
115.99
116.29
115.63
113.37
108.92
101.81
91.91
79.53
65.45
50.71
36.39
23.32
12.01
2.61
-5.00
-11.03
-15.64
-18.94
-20.80
-21.14
-19.88
-17.20
-13.57
-9.69
-6.31
-4.08
-3.36
-4.07
-5.78
-7.76
-9.18
-9.35
-7.89
-4.88
-0.95
2.82
5.17
5.01
1.81
-4.15
-11.88
-19.90
-26.72
-31.22
-32.99
-32.34
-29.98
-26.50
-22.03
-16.08
-7.86
3.16
16.72
31.58
45.80
57.26
64.41
66.57
64.06
57.89
49.36
39.65
29.67
19.90
10.51
1.46
-7.17
-15.16
-22.03
-27.31
-30.72
-32.33
-32.54
-31.78
-30.35
-28.30
-25.63
-22.51
-19.31
-16.60
-14.80
-14.05
-13.99
-14.04
-13.64
-12.55
-10.95
-9.30
-8.14
-7.87
-8.66
-10.34
-12.46
-14.36
-15.34
-14.85
-12.66
-9.02
-4.52
-0.02
3.74
6.24
7.39
7.48
6.98
6.40
6.02
5.95
6.05
6.11
6.01
5.72
5.39
5.07
4.79
4.44
3.99
3.52
3.28
3.51
4.30
5.47
6.62
7.34
7.33
6.58
5.33
3.98
2.91
2.32
2.27
2.54
2.79
2.63
1.83
0.40
-1.38
-3.14
-4.58
-5.58
-6.29
-6.91
-7.59
-8.35
-9.00
-9.33
-9.12
-8.23
-6.62
-4.42
-1.85
0.74
3.06
4.87
6.11
6.94
7.61
8.42
9.56
11.08
12.79
14.37
15.38
15.47
14.50
12.65
10.38
8.23
6.59
5.58
5.08
4.89
4.86
4.92
5.03
5.15
5.23
5.22
5.22
5.40
5.99
7.10
8.65
10.34
11.80
12.66
12.68
11.88
10.48
8.91
7.65
7.09
7.41
8.48
9.96
11.40
12.48
13.00
13.07
12.97
13.18
14.11
16.03
18.90
22.36
25.86
28.83
30.90
31.98
32.18
31.74
30.89
29.83
28.65
27.42
26.01
24.21
21.73
18.34
14.04
9.14
4.04
-0.84
-5.26
-9.28
-13.01
-16.65
-20.37
-24.29
-28.60
-33.43
-38.83
-44.60
-50.42
-55.87
-60.65
-64.68
-67.99
-70.63
-72.56
-73.58
-73.45
-72.01
-69.19
-65.00
-59.57
-53.02
-45.61
-37.70
-29.80
-22.50
-16.29
-11.44
-7.90
-5.31
-3.16
-1.01
1.31
3.72
5.94
7.65
8.65
8.91
8.52
7.71
6.70
5.77
5.17
5.07
5.51
6.39
7.41
8.28
8.73
8.59
7.80
6.47
4.81
3.14
1.83
1.09
0.87
0.84
0.52
-0.41
-2.00
-3.99
-6.05
-7.95
-9.78
-11.86
-14.58
-18.21
-22.80
-28.15
-33.93
-39.75
-45.21
-50.08
-54.33
-58.17
-62.05
-66.45
-71.73
-77.92
-84.87
-92.20
-99.56
-106.66
-113.41
-119.87
-126.28
-132.89
-139.65
-146.01
-150.52
-150.91
-144.67
-129.67
-104.94
-70.98
-29.77
15.41
60.47
101.08
133.57
155.93
168.59
174.22
176.66
179.42
184.19
190.51
196.48
200.05
200.02
196.55
190.41
182.28
172.39
160.53
146.58
130.88
114.15
97.21
80.82
65.34
50.82
37.24
24.56
12.81
2.27
-6.70
-13.74
-18.68
-21.67
-23.15
-23.60
-23.40
-22.63
-21.15
-18.88
-16.07
-13.34
-11.59
-11.66
-13.99
-18.42
-24.24
-30.20
-34.83
-36.67
-34.61
-28.18
-17.80
-4.76
8.97
21.10
29.61
33.26
31.92
26.56
18.97
11.19
4.84
0.73
-1.27
-1.98
-2.40
-3.34
-5.15
-7.82
-11.25
-15.29
-19.71
-24.02
-27.30
-28.38
-26.40
-21.19
-13.54
-5.04
2.61
8.26
11.72
13.68
15.21
17.18
19.80
22.63
24.89
25.91
25.44
23.70
21.24
18.67
16.46
14.76
13.47
12.29
10.87
8.98
6.56
3.75
0.75
-2.30
-5.38
-8.47
-11.45
-13.99
-15.65
-16.02
-15.02
-12.89
-10.17
-7.47
-5.26
-3.78
-3.00
-2.77
-2.86
-3.06
-3.21
-3.27
-3.28
-3.32
-3.49
-3.72
-3.90
-3.94
-3.80
-3.60
-3.42
-3.30
-3.10
-2.66
-1.81
-0.55
0.93
2.35
3.40
3.79
3.34
2.04
0.05
-2.19
-4.11
-5.10
-4.85
-3.43
-1.32
0.85
2.52
3.38
3.44
2.96
2.28
1.76
1.69
2.23
3.40
5.06
6.81
8.17
8.73
8.26
6.90
5.03
3.18
1.75
0.87
0.37
-0.07
-0.75
-1.72
-2.80
-3.61
-3.89
-3.60
-2.97
-2.35
-2.05
-2.19
-2.69
-3.36
-4.02
-4.62
-5.15
-5.65
-6.17
-6.70
-7.15
-7.37
-7.17
-6.48
-5.34
-4.02
-2.85
-2.12
-1.95
-2.24
-2.81
-3.47
-4.15
-4.83
-5.49
-6.01
-6.26
-6.16
-5.82
-5.48
-5.41
-5.71
-6.31
-7.01
-7.56
-7.81
-7.76
-7.52
-7.24
-7.02
-6.92
-6.91
-6.88
-6.66
-6.15
-5.37
-4.48
-3.77
-3.49
-3.75
-4.40
-5.08
-5.31
-4.76
-3.31
-1.21
1.08
3.00
4.22
4.73
4.92
5.28
6.24
7.81
9.72
11.47
12.60
12.89
12.28
10.90
8.92
6.60
4.27
2.41
1.46
1.71
3.13
5.32
7.67
9.62
10.68
10.65
9.56
7.66
5.37
3.17
1.48
0.53
0.32
0.61
1.14
1.67
2.08
2.36
2.58
2.85
3.21
3.70
4.23
4.70
4.90
4.64
3.80
2.38
0.51
-1.62
-3.66
-5.30
-6.28
-6.51
-6.21
-5.80
-5.87
-6.76
-8.49
-10.68
-12.78
-14.32
-15.07
-15.09
-14.49
-13.34
-11.64
-9.37
-6.72
-4.07
-1.86
-0.36
0.39
0.61
0.61
0.57
0.47
0.19
-0.39
-1.22
-2.08
-2.68
-2.72
-2.05
-0.74
0.94
2.60
3.83
4.33
4.04
3.09
1.76
0.43
-0.60
-1.03
-0.67
0.52
2.41
4.64
6.73
8.14
8.50
7.69
5.93
3.64
1.39
-0.37
-1.37
-1.65
-1.49
-1.25
-1.24
-1.54
-2.05
-2.53
-2.77
-2.68
-2.38
-2.07
-2.01
-2.43
-3.38
-4.83
-6.52
-8.10
-9.22
-9.66
-9.44
-8.80
-8.10
-7.60
-7.40
-7.47
-7.73
-8.12
-8.60
-9.06
-9.23
-8.86
-7.77
-6.09
-4.22
-2.63
-1.64
-1.32
-1.42
-1.60
-1.59
-1.27
-0.65
0.19
1.15
2.09
2.92
3.52
3.82
3.77
3.33
2.52
1.48
0.42
-0.39
-0.62
-0.14
0.96
2.33
3.54
4.27
4.38
3.97
3.26
2.52
1.94
1.60
1.52
1.64
1.85
2.05
2.16
2.13
1.96
1.69
1.35
1.06
0.96
1.23
1.93
2.97
4.08
4.87
4.97
4.19
2.53
0.19
-2.49
-5.05
-7.07
-8.20
-8.37
-7.86
-7.20
-6.95
-7.43
-8.48
-9.58
-10.09
-9.60
-8.09
-5.85
-3.36
-1.00
1.03
2.59
3.62
4.12
4.17
3.98
3.85
4.06
4.68
5.59
6.50
7.16
7.46
7.49
7.47
7.66
8.23
9.12
10.12
10.89
11.17
10.84
10.10
9.27
8.72
8.60
8.81
9.04
8.99
8.45
7.47
6.25
5.06
4.12
3.49
3.13
2.88
2.60
2.23
1.76
1.31
0.91
0.57
0.16
-0.42
-1.20
-1.95
-2.28
-1.76
-0.15
2.40
5.43
8.23
10.12
10.59
9.52
7.11
3.89
0.61
-1.96
-3.25
-3.07
-1.67
0.29
2.02
2.77
2.16
0.38
-1.91
-3.77
-4.31
-3.12
-0.46
2.78
5.40
6.38
5.25
2.26
-1.69
-5.40
-7.75
-8.05
-6.24
-2.97
0.70
3.63
5.03
4.67
2.93
0.35
-2.58
-5.72
-9.23
-13.26
-17.66
-21.90
-25.22
-27.07
-27.34
-26.44
-25.08
-24.04
-23.78
-24.35
-25.30
-25.75
-24.63
-21.17
-15.02
-6.77
2.01
9.07
12.51
11.68
7.83
3.42
1.27
3.65
11.72
25.63
44.70
67.41
91.28
112.83
128.49
136.33
137.56
136.64
139.39
149.84
167.80
188.78
206.42
216.23
218.17
216.40
216.67
223.03
235.53
250.20
261.21
263.66
255.67
238.70
216.38
192.42
169.63
148.66
128.47
107.21
83.01
54.79
22.41
-13.26
-50.31
-86.06
-117.68
-143.17
-162.45
-178.02
-194.42
-216.50
-247.18
-285.82
-328.32
-368.80
-401.90
-424.61
-436.69
-439.64
-435.24
-424.44
-407.24
-383.34
-352.79
-316.09
-273.96
-226.93
-175.04
-118.49
-58.32
3.03
61.78
113.37
153.50
179.23
189.96
187.71
176.64
162.05
149.04
141.32
140.53
145.99
155.13
164.50
170.82
171.95
167.43
158.44
147.23
136.24
127.14
120.25
114.54
108.04
98.38
83.50
61.96
33.15
-2.30
-42.34
-83.60
-122.01
-154.13
-178.62
-197.13
-214.18
-236.06
-268.55
-314.69
-373.04
-437.26
-497.39
-542.59
-564.38
-559.08
-528.64
-479.33
-419.06
-354.58
-289.61
-224.60
-157.80
-86.85
-10.43
70.75
153.55
232.55
300.98
352.33
382.21
389.80
378.10
352.81
320.39
286.36
254.32
226.13
202.52
183.68
169.29
158.42
149.49
140.71
130.76
119.32
107.10
95.42
85.47
77.70
71.62
66.13
59.97
52.34
43.05
32.55
21.65
11.13
1.45
-7.29
-15.21
-22.50
-29.15
-34.98
-39.65
-42.77
-44.12
-43.65
-41.53
-38.14
-34.11
-30.10
-26.68
-24.06
-22.05
-20.10
-17.55
-13.95
-9.23
-3.77
1.82
6.94
11.13
14.28
16.50
18.23
19.90
21.95
24.55
27.53
30.36
32.41
33.12
32.24
29.85
26.21
21.71
16.72
11.58
6.65
2.21
-1.51
-4.52
-6.97
-9.20
-11.41
-13.75
-16.15
-18.45
-20.45
-22.04
-23.20
-23.98
-24.49
-24.82
-25.04
-25.15
-25.09
-24.88
-24.57
-24.36
-24.39
-24.76
-25.32
-25.80
-25.85
-25.26
-24.11
-22.69
-21.43
-20.73
-20.74
-21.32
-22.05
-22.40
-21.86
-20.25
-17.66
-14.52
-11.42
-8.88
-7.16
-6.27
-6.04
-6.15
-6.27
-6.06
-5.20
-3.49
-0.92
2.19
5.31
7.81
9.20
9.32
8.41
6.93
5.45
4.42
4.08
4.45
5.36
6.53
7.59
8.24
8.24
7.55
6.35
4.95
3.76
3.14
3.29
4.18
5.61
7.23
8.72
9.80
10.35
10.34
9.89
9.22
8.61
8.33
8.51
9.07
9.73
10.15
10.10
9.57
8.79
8.02
7.49
7.21
7.14
7.13
7.16
7.23
7.33
7.38
7.23
6.69
5.61
3.92
1.66
-1.04
-3.94
-6.72
-9.03
-10.62
-11.38
-11.39
-10.85
-10.02
-9.07
-8.19
-7.56
-7.31
-7.54
-8.17
-8.88
-9.19
-8.62
-6.93
-4.23
-1.02
2.04
4.33
5.51
5.64
5.01
4.08
3.25
2.75
2.64
2.88
3.36
3.95
4.49
4.78
4.65
4.03
3.01
1.92
1.11
0.85
1.09
1.52
1.72
1.41
0.65
-0.27
-1.09
-1.78
-2.57
-3.87
-5.88
-8.52
-11.38
-13.93
-15.79
-16.88
-17.50
-18.24
-19.68
-22.25
-25.98
-30.42
-34.82
-38.37
-40.55
-41.50
-41.99
-43.18
-46.11
-51.23
-58.13
-65.61
-72.21
-76.73
-78.68
-78.49
-77.33
-76.71
-78.11
-82.60
-90.24
-99.47
-106.76
-106.82
-94.28
-66.07
-23.64
26.49
74.43
110.16
126.83
122.47
99.68
63.72
20.84
-22.87
-61.72
-90.64
-105.84
-105.94
-92.73
-70.89
-46.65
-25.70
-11.48
-4.39
-2.02
-0.28
5.03
16.69
35.13
58.22
82.27
103.50
119.43
129.49
134.52
135.70
133.76
128.77
120.70
109.99
97.83
85.85
75.48
67.58
62.19
58.82
56.79
55.46
54.38
53.21
51.65
49.41
46.20
41.79
36.10
29.18
21.28
12.74
3.95
-4.77
-13.21
-21.18
-28.43
-34.60
-39.13
-41.46
-41.13
-37.94
-32.07
-24.00
-14.49
-4.57
4.67
12.24
17.66
21.12
23.52
26.23
30.51
37.00
45.42
54.71
63.48
70.57
75.51
78.67
81.02
83.66
87.44
92.65
98.93
105.49
111.52
116.50
120.31
123.06
124.86
125.63
125.21
123.58
121.17
118.81
117.50
117.94
120.25
124.00
128.47
133.06
137.57
142.31
147.90
154.92
163.66
173.85
184.75
195.33
204.61
211.72
216.26
218.31
218.68
218.74
220.15
224.50
232.81
245.11
260.14
275.47
287.93
294.36
292.51
281.63
262.67
238.00
210.62
183.38
158.18
135.73
115.66
97.02
78.84
60.47
41.52
22.08
2.83
-15.23
-31.38
-45.54
-58.37
-71.16
-85.36
-102.43
-123.15
-147.75
-176.04
-208.11
-244.42
-285.63
-332.33
-384.97
-444.73
-512.34
-587.10
-665.66
-741.45
-805.24
-847.29
-860.45
-843.01
-801.40
-746.05
-687.60
-633.58
-587.40
-548.83
-515.26
-483.18
-449.32
-414.85
-380.47
-345.58
-308.52
-268.80
-227.80
-187.79
-150.78
-117.89
-94.78
-83.39
-80.97
-81.49
-81.03
-81.55
-90.55
-117.42
-168.64
-250.71
-357.70
-471.25
-566.47
-623.08
-632.78
-599.16
-532.68
-399.92
-196.12
53.08
301.20
507.83
651.71
727.48
740.26
703.83
638.86
561.04
488.02
427.72
384.18
356.04
337.47
322.89
310.33
301.03
291.08
277.32
258.51
233.32
203.68
172.51
143.81
122.17
110.82
106.77
105.80
104.54
102.36
100.54
100.44
103.31
110.07
120.79
132.58
142.50
148.31
149.65
147.39
142.38
135.33
126.87
117.38
106.50
94.17
80.79
67.49
55.68
46.24
39.54
35.45
33.48
32.85
32.73
32.36
31.32
29.61
27.29
24.41
20.93
16.86
12.37
7.89
4.00
1.14
-0.50
-1.15
-1.30
-1.46
-1.89
-2.39
-2.49
-1.61
0.55
3.85
7.76
11.56
14.67
16.91
18.52
19.94
21.54
23.38
25.22
26.63
27.22
26.75
25.18
22.67
19.50
15.97
12.38
8.86
5.48
2.26
-0.69
-3.12
-4.78
-5.62
-5.83
-5.88
-6.27
-7.30
-8.89
-10.68
-12.19
-13.12
-13.51
-13.66
-13.91
-14.43
-15.19
-15.91
-16.31
-16.19
-15.56
-14.72
-14.05
-13.89
-14.30
-15.08
-15.84
-16.29
-16.38
-16.34
-16.35
-16.46
-16.35
-15.69
-14.33
-12.55
-10.95
-10.05
-9.98
-10.34
-10.43
-9.70
-8.06
-5.86
-3.61
-1.75
-0.45
0.38
0.90
1.24
1.54
1.92
2.47
3.26
4.20
5.21
6.14
6.86
7.26
7.32
7.07
6.68
6.46
6.75
7.75
9.36
11.12
12.44
12.89
12.32
10.94
9.16
7.35
5.67
4.14
2.71
1.39
0.33
-0.29
-0.31
0.28
1.18
1.96
2.17
1.64
0.51
-0.74
-1.64
-1.95
-1.76
-1.51
-1.60
-2.21
-3.33
-4.75
-6.24
-7.62
-8.70
-9.27
-9.13
-8.26
-6.85
-5.37
-4.33
-4.04
-4.49
-5.34
-6.11
-6.39
-6.01
-5.02
-3.64
-2.12
-0.71
0.37
1.00
1.21
1.10
0.92
0.92
1.22
1.78
2.41
2.81
2.83
2.52
2.15
2.05
2.44
3.20
3.95
4.26
3.84
2.77
1.37
0.01
-1.05
-1.76
-2.22
-2.52
-2.62
-2.43
-1.90
-1.12
-0.29
0.38
0.77
0.88
0.79
0.60
0.42
0.28
0.22
0.13
-0.15
-0.85
-2.06
-3.65
-5.17
-6.09
-6.00
-4.79
-2.76
-0.48
1.43
2.45
2.34
1.17
-0.72
-2.81
-4.53
-5.48
-5.47
-4.70
-3.61
-2.72
-2.41
-2.94
-4.22
-5.98
-7.79
-9.14
-9.62
-9.14
-7.87
-6.30
-4.96
-4.18
-3.95
-4.07
-4.25
-4.26
-4.04
-3.54
-2.75
-1.64
-0.28
1.17
2.44
3.41
4.11
4.66
5.20
5.68
5.99
6.04
5.93
5.87
6.17
6.91
7.94
8.98
9.78
10.17
10.20
9.94
9.48
8.86
8.13
7.38
6.74
6.29
6.02
5.83
5.63
5.29
4.74
3.95
2.94
1.85
0.91
0.35
0.33
0.87
1.79
2.78
3.51
3.69
3.18
2.00
0.35
-1.41
-2.85
-3.63
-3.67
-3.20
-2.70
-2.62
-3.15
-4.20
-5.52
-6.87
-8.15
-9.39
-10.56
-11.42
-11.57
-10.67
-8.74
-6.22
-3.93
-2.65
-2.76
-3.98
-5.56
-6.66
-6.75
-5.84
-4.38
-2.93
-1.85
-1.20
-0.79
-0.48
-0.24
-0.14
-0.18
-0.28
-0.20
0.20
0.87
1.61
2.13
2.31
2.24
2.11
2.03
2.03
2.03
1.97
1.85
1.79
1.87
2.10
2.36
2.56
2.65
2.70
2.78
2.93
3.16
3.42
3.67
3.97
4.42
5.07
5.89
6.79
7.53
7.85
7.44
6.23
4.35
2.15
0.12
-1.36
-2.20
-2.56
-2.72
-2.88
-3.04
-3.14
-3.15
-3.23
-3.66
-4.57
-5.85
-7.09
-7.86
-8.02
-7.82
-7.76
-8.22
-9.29
-10.62
-11.67
-11.95
-11.31
-9.88
-7.99
-6.01
-4.15
-2.51
-1.06
0.30
1.62
2.91
4.16
5.31
6.31
7.17
7.98
8.82
9.74
10.65
11.35
11.64
11.35
10.47
9.10
7.42
5.54
3.51
1.32
-1.00
-3.28
-5.23
-6.57
-7.14
-7.10
-6.83
-6.79
-7.29
-8.29
-9.40
-10.13
-10.15
-9.44
-8.38
-7.49
-7.14
-7.47
-8.24
-9.03
-9.39
-9.01
-7.82
-6.02
-3.90
-1.74
0.32
2.28
4.23
6.11
7.68
8.60
8.54
7.38
5.34
2.86
0.45
-1.52
-2.93
-3.78
-4.13
-4.01
-3.40
-2.33
-0.98
0.34
1.36
1.88
1.99
1.92
1.97
2.35
3.05
3.87
4.46
4.58
4.19
3.55
3.03
3.02
3.67
4.80
6.01
6.75
6.72
5.87
4.48
3.03
1.89
1.25
1.00
0.93
0.87
0.84
0.97
1.50
2.61
4.21
6.02
7.56
8.44
8.45
7.71
6.57
5.45
4.61
4.10
3.78
3.44
2.90
2.15
1.29
0.50
-0.08
-0.39
-0.50
-0.54
-0.68
-1.04
-1.59
-2.22
-2.79
-3.25
-3.71
-4.31
-5.17
-6.24
-7.35
-8.18
-8.54
-8.34
-7.63
-6.52
-5.09
-3.44
-1.65
0.11
1.67
2.90
3.75
4.29
4.73
5.18
5.75
6.37
6.85
6.97
6.57
5.70
4.64
3.73
3.22
3.08
2.89
1.86
-0.99
-6.34
-14.19
-23.57
-32.84
-40.15
-44.19
-44.68
-42.12
-37.29
-30.88
-23.64
-16.51
-10.73
-7.48
-7.19
-9.05
-11.42
-12.74
-12.63
-12.25
-13.50
-17.60
-24.01
-30.60
-34.73
-34.76
-30.85
-24.63
-18.10
-12.53
-8.03
-3.99
0.17
4.52
8.59
11.65
13.28
13.61
13.18
12.61
12.35
12.56
13.12
13.83
14.62
15.51
16.62
18.09
19.96
22.17
24.52
26.78
28.70
30.09
30.88
31.12
30.87
30.16
28.89
26.95
24.33
21.14
17.65
14.16
10.99
8.45
6.79
6.19
6.67
8.00
9.82
11.66
13.21
14.26
14.77
14.72
14.07
12.88
11.33
9.84
8.91
8.92
9.91
11.63
13.64
15.45
16.73
17.25
16.89
15.63
13.51
10.76
7.71
4.67
1.75
-1.12
-4.12
-7.40
-10.87
-14.23
-17.03
-18.97
-19.96
-20.18
-19.90
-19.34
-18.55
-17.54
-16.30
-14.99
-13.86
-13.15
-12.96
-13.18
-13.55
-13.80
-13.77
-13.45
-12.91
-12.21
-11.36
-10.42
-9.43
-8.51
-7.70
-6.91
-5.96
-4.58
-2.65
-0.16
2.71
5.72
8.66
11.32
13.57
15.35
16.70
17.78
18.88
20.30
22.18
24.46
26.85
28.96
30.39
30.80
30.02
28.04
25.08
21.55
18.00
14.93
12.64
11.02
9.65
7.90
5.21
1.34
-3.46
-8.47
-12.62
-15.00
-15.21
-13.69
-11.71
-10.87
-12.40
-16.48
-22.10
-27.51
-31.04
-31.82
-30.02
-26.49
-22.17
-17.63
-13.01
-8.38
-4.12
-0.96
0.26
-0.91
-4.14
-8.37
-12.28
-14.80
-15.55
-14.82
-13.28
-11.50
-9.68
-7.60
-4.88
-1.39
2.57
6.35
9.14
10.40
10.06
8.51
6.48
4.70
3.64
3.38
3.67
3.98
3.86
3.02
1.51
-0.30
-1.92
-2.83
-2.76
-1.83
-0.44
0.84
1.52
1.35
0.45
-0.81
-1.92
-2.44
-2.12
-0.96
0.76
2.60
3.95
4.30
3.30
0.93
-2.51
-6.53
-10.54
-14.05
-16.75
-18.62
-19.78
-20.46
-20.84
-21.02
-21.03
-20.91
-20.81
-20.96
-21.60
-22.87
-24.68
-26.68
-28.40
-29.44
-29.48
-28.40
-26.11
-22.64
-18.11
-12.87
-7.43
-2.26
2.40
6.67
10.94
15.53
20.45
25.20
29.05
31.28
31.65
30.39
28.08
25.33
22.53
19.88
17.40
15.20
13.44
12.37
12.12
12.58
13.52
14.60
15.66
16.64
17.59
18.52
19.36
19.92
19.98
19.44
18.24
16.40
13.97
11.09
7.96
4.91
2.33
0.49
-0.54
-0.94
-1.02
-1.07
-1.19
-1.31
-1.28
-0.96
-0.40
0.28
0.94
1.53
2.07
2.56
2.93
2.99
2.58
1.55
-0.09
-2.20
-4.54
-6.86
-8.98
-10.75
-12.05
-12.74
-12.67
-11.78
-10.12
-8.06
-6.09
-4.72
-4.18
-4.27
-4.36
-3.76
-2.00
0.80
4.08
7.09
9.36
10.84
11.92
13.07
14.53
16.19
17.61
18.26
17.83
16.36
14.22
11.96
10.05
8.59
7.35
5.91
3.95
1.58
-0.68
-2.14
-2.32
-1.28
0.40
1.88
2.55
2.19
1.08
-0.38
-1.80
-2.96
-3.76
-4.08
-3.82
-2.92
-1.58
-0.16
0.92
1.30
0.90
-0.17
-1.60
-3.16
-4.64
-5.99
-7.21
-8.40
-9.66
-10.99
-12.36
-13.67
-14.75
-15.42
-15.56
-15.19
-14.38
-13.35
-12.24
-11.27
-10.45
-9.72
-8.83
-7.57
-5.92
-4.12
-2.65
-2.03
-2.47
-3.71
-5.04
-5.64
-4.94
-2.92
-0.12
2.63
4.61
5.55
5.68
5.47
5.33
5.39
5.48
5.43
5.26
5.29
5.99
7.55
9.78
12.06
13.77
14.59
14.67
14.45
14.27
14.10
13.50
11.95
9.21
5.50
1.44
-2.20
-4.92
-6.55
-7.27
-7.40
-7.20
-6.81
-6.21
-5.35
-4.22
-2.95
-1.82
-1.11
-1.01
-1.52
-2.41
-3.42
-4.36
-5.23
-6.12
-7.07
-8.00
-8.70
-9.00
-8.90
-8.61
-8.37
-8.36
-8.56
-8.75
-8.69
-8.21
-7.36
-6.34
-5.50
-5.18
-5.64
-6.91
-8.73
-10.48
-11.45
-11.09
-9.26
-6.31
-2.85
0.45
3.18
5.22
6.67
7.63
8.21
8.48
8.58
8.71
9.04
9.72
10.70
11.81
12.81
13.50
13.76
13.56
12.99
12.18
11.27
10.37
9.39
8.17
6.48
4.24
1.56
-1.18
-3.48
-4.87
-5.04
-4.00
-2.04
0.30
2.34
3.51
3.54
2.57
1.11
-0.21
-0.92
-0.90
-0.44
-0.06
-0.19
-1.02
-2.38
-3.88
-5.22
-6.24
-7.02
-7.71
-8.38
-8.90
-9.09
-8.90
-8.47
-8.18
-8.39
-9.13
-10.01
-10.28
-9.29
-6.78
-3.09
0.99
4.54
6.93
7.91
7.76
7.04
6.43
6.53
7.70
9.88
12.59
15.02
16.32
15.88
13.63
10.04
6.00
2.49
0.26
-0.38
0.48
2.27
4.34
6.12
7.31
8.00
8.54
9.33
10.54
11.98
13.18
13.64
13.18
11.97
10.45
9.04
7.91
6.91
5.70
4.03
1.94
-0.31
-2.35
-3.98
-5.22
-6.27
-7.30
-8.28
-8.94
-8.97
-8.19
-6.71
-4.88
-3.19
-2.02
-1.52
-1.63
-2.18
-2.96
-3.85
-4.81
-5.78
-6.70
-7.36
-7.56
-7.12
-6.01
-4.33
-2.28
-0.20
1.61
2.86
3.43
3.36
2.93
2.51
2.48
3.01
4.07
5.37
6.48
7.01
6.74
5.69
4.13
2.48
1.12
0.33
0.17
0.49
0.99
1.35
1.31
0.68
-0.63
-2.54
-4.89
-7.27
-9.22
-10.28
-10.24
-9.22
-7.66
-6.18
-5.24
-5.05
-5.46
-6.18
-6.87
-7.31
-7.37
-7.04
-6.39
-5.59
-4.84
-4.42
-4.52
-5.16
-6.16
-7.12
-7.71
-7.76
-7.31
-6.60
-5.84
-5.16
-4.59
-4.12
-3.82
-3.83
-4.30
-5.20
-6.38
-7.55
-8.51
-9.23
-9.82
-10.47
-11.21
-11.92
-12.31
-12.16
-11.45
-10.33
-9.07
-7.90
-6.90
-6.02
-5.11
-4.02
-2.64
-0.97
0.94
2.89
4.65
6.03
6.89
7.26
7.22
6.90
6.46
6.03
5.72
5.67
5.96
6.53
7.14
7.42
7.12
6.25
5.16
4.35
4.20
4.79
5.77
6.68
7.12
6.97
6.39
5.66
4.97
4.30
3.49
2.40
1.06
-0.36
-1.57
-2.36
-2.68
-2.76
-2.95
-3.61
-4.92
-6.72
-8.62
-10.08
-10.72
-10.38
-9.19
-7.44
-5.43
-3.48
-1.70
-0.23
0.87
1.56
1.86
1.86
1.66
1.35
0.89
0.26
-0.56
-1.49
-2.34
-2.91
-3.05
-2.70
-1.91
-0.83
0.33
1.36
2.02
2.14
1.68
0.70
-0.55
-1.72
-2.45
-2.51
-1.86
-0.69
0.68
1.86
2.56
2.63
2.11
1.20
0.20
-0.59
-0.97
-0.91
-0.53
0.01
0.57
1.05
1.45
1.80
2.07
2.18
1.98
1.36
0.32
-0.99
-2.34
-3.50
-4.36
-4.97
-5.47
-6.01
-6.55
-6.96
-7.07
-6.79
-6.14
-5.26
-4.32
-3.47
-2.76
-2.24
-1.92
-1.75
-1.60
-1.31
-0.72
0.18
1.14
1.77
1.70
0.84
-0.52
-1.78
-2.30
-1.71
-0.02
2.36
4.85
6.92
8.28
8.91
9.02
8.87
8.66
8.42
8.07
7.51
6.72
5.77
4.87
4.17
3.77
3.58
3.39
3.05
2.58
2.22
2.26
2.95
4.26
5.89
7.36
8.26
8.45
8.08
7.44
6.82
6.36
6.01
5.66
5.19
4.53
3.65
2.51
1.03
-0.75
-2.79
-4.89
-6.81
-8.32
-9.34
-9.92
-10.25
-10.52
-10.90
-11.47
-12.23
-13.06
-13.79
-14.17
-13.99
-13.09
-11.47
-9.23
-6.63
-3.98
-1.57
0.35
1.65
2.34
2.62
2.81
3.23
4.08
5.35
6.85
8.29
9.42
10.08
10.24
9.99
9.48
8.90
8.47
8.37
8.68
9.24
9.71
9.74
9.08
7.73
5.92
4.09
2.64
1.83
1.69
2.09
2.77
3.44
3.92
4.15
4.20
4.16
4.12
4.05
3.89
3.57
3.09
2.50
1.83
1.05
0.07
-1.18
-2.66
-4.24
-5.75
-7.06
-8.15
-9.08
-9.92
-10.70
-11.40
-11.96
-12.36
-12.63
-12.76
-12.74
-12.50
-11.93
-10.92
-9.41
-7.46
-5.21
-2.92
-0.91
0.59
1.53
2.02
2.27
2.47
2.67
2.83
2.84
2.67
2.37
2.03
1.70
1.38
1.03
0.64
0.27
0.03
-0.01
0.17
0.53
1.04
1.72
2.57
3.52
4.39
4.99
5.22
5.10
4.84
4.68
4.75
5.00
5.30
5.42
5.30
4.93
4.42
3.91
3.45
3.01
2.42
1.50
0.11
-1.73
-3.72
-5.45
-6.44
-6.47
-5.62
-4.33
-3.12
-2.42
-2.38
-2.90
-3.71
-4.50
-5.11
-5.44
-5.54
-5.47
-5.32
-5.11
-4.81
-4.38
-3.75
-2.96
-2.04
-1.05
-0.04
1.03
2.24
3.61
5.04
6.30
7.13
7.33
6.93
6.12
5.23
4.54
4.20
4.20
4.45
4.84
5.28
5.74
6.20
6.59
6.78
6.62
6.03
5.04
3.84
2.69
1.85
1.45
1.45
1.64
1.79
1.74
1.47
1.07
0.69
0.42
0.25
0.05
-0.33
-0.98
-1.91
-2.97
-4.00
-4.85
-5.49
-5.95
-6.30
-6.56
-6.73
-6.78
-6.71
-6.57
-6.47
-6.47
-6.57
-6.69
-6.68
-6.44
-5.95
-5.27
-4.57
-3.99
-3.60
-3.42
-3.31
-3.09
-2.59
-1.79
-0.81
0.14
0.91
1.46
1.89
2.37
3.05
3.95
4.96
5.91
6.62
7.00
7.02
6.72
6.19
5.56
5.00
4.68
4.71
5.03
5.52
5.94
6.13
6.00
5.59
4.98
4.34
3.78
3.38
3.22
3.30
3.60
4.00
4.34
4.47
4.23
3.52
2.35
0.88
-0.66
-1.99
-2.89
-3.23
-3.09
-2.65
-2.23
-2.17
-2.79
-4.28
-6.61
-9.42
-12.17
-14.27
-15.29
-15.20
-14.30
-13.08
-11.98
-11.23
-10.76
-10.38
-9.88
-9.10
-7.97
-6.50
-4.77
-2.92
-1.11
0.46
1.69
2.55
3.09
3.39
3.53
3.66
3.96
4.64
5.82
7.40
9.07
10.43
11.21
11.38
11.18
10.91
10.75
10.67
10.51
10.13
9.54
8.94
8.53
8.42
8.54
8.64
8.45
7.74
6.45
4.65
2.58
0.51
-1.23
-2.38
-2.88
-2.82
-2.50
-2.24
-2.26
-2.55
-2.95
-3.24
-3.29
-3.22
-3.20
-3.41
-3.90
-4.56
-5.21
-5.74
-6.18
-6.62
-7.16
-7.82
-8.48
-9.06
-9.48
-9.76
-9.89
-9.81
-9.44
-8.67
-7.61
-6.43
-5.38
-4.59
-4.04
-3.55
-2.93
-2.11
-1.14
-0.23
0.48
0.95
1.19
1.24
1.12
0.83
0.43
0.10
0.04
0.45
1.37
2.70
4.17
5.51
6.48
7.05
7.33
7.58
8.03
8.77
9.69
10.54
11.02
11.04
10.71
10.35
10.26
10.50
10.88
10.98
10.52
9.51
8.25
7.17
6.57
6.37
6.19
5.61
4.33
2.38
0.08
-2.15
-3.99
-5.31
-6.14
-6.66
-7.02
-7.34
-7.70
-8.13
-8.65
-9.32
-10.18
-11.22
-12.30
-13.13
-13.36
-12.72
-11.13
-8.78
-6.07
-3.41
-1.11
0.68
1.99
2.85
3.26
3.18
2.64
1.86
1.18
1.01
1.54
2.72
4.15
5.27
5.67
5.23
4.25
3.24
2.69
2.82
3.40
3.98
4.06
3.39
2.08
0.56
-0.70
-1.32
-1.14
-0.31
0.86
2.02
2.87
3.29
3.33
3.14
2.91
2.80
2.80
2.85
2.81
2.57
2.10
1.43
0.70
0.06
-0.43
-0.79
-1.20
-1.89
-3.01
-4.57
-6.37
-8.16
-9.66
-10.76
-11.47
-11.81
-11.84
-11.57
-11.01
-10.22
-9.35
-8.49
-7.64
-6.66
-5.41
-3.86
-2.16
-0.58
0.62
1.38
1.81
2.15
2.56
3.08
3.63
4.10
4.36
4.44
4.41
4.39
4.53
4.94
5.55
6.22
6.66
6.61
6.00
5.09
4.29
4.03
4.47
5.41
6.40
6.92
6.73
5.87
4.60
3.21
1.91
0.75
-0.25
-1.05
-1.57
-1.71
-1.45
-0.92
-0.47
-0.42
-1.05
-2.30
-3.81
-4.99
-5.37
-4.79
-3.60
-2.53
-2.23
-2.99
-4.57
-6.32
-7.59
-8.07
-7.86
-7.36
-6.92
-6.67
-6.44
-5.98
-5.13
-3.99
-2.88
-2.20
-2.17
-2.79
-3.74
-4.57
-4.78
-4.08
-2.49
-0.36
1.77
3.44
4.38
4.66
4.51
4.20
3.89
3.60
3.33
3.10
3.04
3.28
3.87
4.69
5.45
5.90
5.90
5.57
5.18
4.99
5.11
5.40
5.58
5.38
4.73
3.85
3.09
2.77
2.97
3.52
4.13
4.56
4.65
4.43
3.95
3.32
2.63
2.00
1.48
1.12
0.90
0.74
0.60
0.44
0.22
-0.13
-0.75
-1.82
-3.41
-5.37
-7.41
-9.13
-10.26
-10.67
-10.45
-9.76
-8.85
-7.88
-7.00
-6.26
-5.60
-4.84
-3.81
-2.40
-0.65
1.14
2.63
3.52
3.72
3.42
2.94
2.61
2.65
3.14
3.95
4.91
5.86
6.66
7.30
7.80
8.18
8.44
8.57
8.51
8.28
7.96
7.63
7.30
6.84
6.03
4.67
2.76
0.55
-1.52
-3.07
-3.91
-4.13
-3.99
-3.75
-3.51
-3.23
-2.83
-2.30
-1.75
-1.36
-1.28
-1.51
-1.91
-2.26
-2.40
-2.33
-2.26
-2.47
-3.18
-4.39
-5.82
-7.00
-7.49
-7.09
-6.02
-4.81
-4.05
-4.11
-4.93
-6.09
-7.01
-7.22
-6.53
-5.11
-3.33
-1.56
-0.02
1.28
2.44
3.54
4.57
5.36
5.76
5.74
5.43
5.09
4.97
5.14
5.43
5.57
5.31
4.59
3.56
2.49
1.66
1.22
1.16
1.37
1.66
1.89
2.00
1.98
1.90
1.83
1.85
1.96
2.14
2.34
2.53
2.72
2.92
3.10
3.13
2.81
1.99
0.58
-1.31
-3.40
-5.32
-6.70
-7.36
-7.31
-6.78
-6.12
-5.60
-5.38
-5.44
-5.73
-6.18
-6.76
-7.39
-7.96
-8.33
-8.44
-8.26
-7.94
-7.63
-7.38
-7.10
-6.59
-5.70
-4.45
-3.08
-1.86
-1.00
-0.49
-0.11
0.33
0.96
1.78
2.70
3.61
4.39
4.91
5.04
4.78
4.27
3.77
3.56
3.77
4.29
4.87
5.25
5.35
5.31
5.34
5.58
5.90
6.05
5.81
5.16
4.33
3.63
3.28
3.22
3.15
2.69
1.66
0.22
-1.16
-1.89
-1.62
-0.39
1.30
2.75
3.39
3.06
1.99
0.67
-0.51
-1.37
-2.00
-2.56
-3.08
-3.41
-3.32
-2.74
-1.87
-1.10
-0.90
-1.52
-2.94
-4.86
-6.84
-8.54
-9.74
-10.45
-10.75
-10.79
-10.61
-10.16
-9.31
-7.93
-6.02
-3.74
-1.35
0.81
2.49
3.63
4.37
4.97
5.71
6.66
7.74
8.63
8.97
8.60
7.64
6.52
5.86
6.11
7.34
9.18
11.00
12.20
12.51
12.04
11.17
10.31
9.67
9.18
8.57
7.58
6.11
4.35
2.58
1.15
0.24
-0.16
-0.20
-0.09
-0.00
-0.08
-0.37
-0.93
-1.73
-2.73
-3.85
-5.00
-6.09
-7.05
-7.77
-8.19
-8.27
-8.07
-7.78
-7.63
-7.84
-8.54
-9.66
-10.99
-12.24
-13.13
-13.45
-13.12
-12.15
-10.66
-8.90
-7.05
-5.28
-3.62
-2.04
-0.54
0.86
2.00
2.77
3.08
3.02
2.82
2.75
3.05
3.77
4.77
5.84
6.74
7.29
7.47
7.34
7.03
6.71
6.45
6.25
6.04
5.70
5.17
4.49
3.80
3.28
3.04
3.02
3.07
3.04
2.85
2.50
2.04
1.51
0.86
0.09
-0.72
-1.41
-1.81
-1.92
-1.84
-1.78
-1.87
-2.13
-2.44
-2.70
-2.95
-3.40
-4.21
-5.43
-6.80
-8.00
-8.76
-9.07
-9.16
-9.34
-9.80
-10.43
-10.94
-10.97
-10.31
-9.02
-7.36
-5.65
-4.14
-2.88
-1.81
-0.79
0.21
1.16
1.94
2.52
2.88
3.08
3.18
3.21
3.21
3.27
3.47
3.83
4.31
4.73
4.93
4.90
4.80
4.84
5.22
5.92
6.72
7.34
7.64
7.63
7.49
7.38
7.34
7.28
7.12
6.81
6.35
5.80
5.13
4.25
3.08
1.61
0.04
-1.34
-2.22
-2.46
-2.14
-1.57
-1.16
-1.30
-2.17
-3.73
-5.70
-7.67
-9.26
-10.26
-10.67
-10.68
-10.50
-10.30
-10.12
-9.89
-9.58
-9.14
-8.62
-8.03
-7.39
-6.62
-5.77
-4.91
-4.19
-3.78
-3.68
-3.76
-3.77
-3.52
-2.92
-2.08
-1.17
-0.31
0.41
1.05
1.72
2.53
3.54
4.73
5.98
7.16
8.17
8.98
9.65
10.21
10.67
10.97
11.04
10.79
10.25
9.56
8.84
8.21
7.72
7.34
7.05
6.80
6.52
6.08
5.32
4.07
2.36
0.44
-1.21
-2.06
-1.76
-0.40
1.55
3.41
4.58
4.87
4.41
3.59
2.73
1.91
1.05
0.02
-1.08
-1.98
-2.32
-1.96
-1.08
-0.08
0.57
0.67
0.33
-0.01
0.14
1.08
2.80
4.89
6.78
7.82
7.57
5.82
2.77
-1.16
-5.34
-9.17
-12.11
-13.86
-14.40
-13.99
-13.09
-12.15
-11.43
-10.91
-10.35
-9.44
-8.08
-6.44
-4.89
-3.77
-3.22
-3.10
-3.12
-2.94
-2.40
-1.46
-0.14
1.52
3.44
5.46
7.28
8.53
8.92
8.36
6.97
5.04
2.90
0.74
-1.37
-3.39
-5.26
-6.81
-7.81
-8.05
-7.49
-6.30
-4.81
-3.46
-2.61
-2.39
-2.71
-3.30
-3.86
-4.26
-4.53
-4.75
-4.99
-5.13
-4.95
-4.23
-2.88
-0.98
1.25
3.60
5.90
8.01
9.77
10.93
11.20
10.41
8.69
6.49
4.39
2.96
2.41
2.53
2.85
2.79
2.01
0.61
-0.90
-1.85
-1.72
-0.42
1.69
4.02
5.97
7.25
7.85
7.86
7.40
6.42
4.89
2.90
0.73
-1.18
-2.47
-3.03
-3.08
-2.97
-3.03
-3.44
-4.12
-4.81
-5.27
-5.33
-4.97
-4.36
-3.73
-3.32
-3.29
-3.67
-4.34
-5.11
-5.76
-6.11
-6.05
-5.52
-4.56
-3.37
-2.24
-1.48
-1.33
-1.77
-2.58
-3.39
-3.82
-3.69
-3.03
-2.05
-1.02
-0.15
0.44
0.68
0.56
0.11
-0.62
-1.51
-2.38
-3.02
-3.30
-3.19
-2.79
-2.24
-1.70
-1.24
-0.83
-0.45
-0.03
0.47
1.12
1.98
3.06
4.27
5.41
6.17
6.32
5.86
5.05
4.38
4.26
4.86
6.07
7.51
8.75
9.51
9.66
9.23
8.32
7.05
5.58
4.06
2.66
1.54
0.79
0.45
0.46
0.65
0.83
0.74
0.18
-0.96
-2.61
-4.55
-6.52
-8.30
-9.82
-11.13
-12.33
-13.42
-14.29
-14.77
-14.72
-14.10
-12.96
-11.41
-9.56
-7.47
-5.24
-2.99
-0.85
1.05
2.72
4.26
5.79
7.41
9.13
10.83
12.32
13.41
13.94
13.80
13.02
11.70
10.01
8.20
6.45
4.93
3.75
3.02
2.83
3.21
4.07
5.17
6.20
6.83
6.92
6.53
5.83
5.10
4.53
4.13
3.84
3.48
2.90
2.05
0.97
-0.24
-1.39
-2.32
-2.88
-3.04
-2.87
-2.58
-2.41
-2.54
-3.01
-3.66
-4.24
-4.48
-4.24
-3.55
-2.64
-1.76
-1.14
-0.85
-0.83
-0.90
-0.87
-0.58
0.08
1.09
2.30
3.44
4.19
4.27
3.58
2.18
0.32
-1.69
-3.53
-4.98
-5.89
-6.20
-5.95
-5.30
-4.55
-4.06
-4.04
-4.47
-5.05
-5.35
-5.08
-4.21
-2.99
-1.76
-0.78
-0.11
0.39
0.93
1.68
2.63
3.65
4.57
5.25
5.63
5.71
5.55
5.22
4.78
4.33
3.97
3.77
3.72
3.70
3.52
3.00
2.10
1.00
-0.09
-0.95
-1.58
-2.18
-3.02
-4.24
-5.75
-7.26
-8.38
-8.91
-8.81
-8.27
-7.48
-6.61
-5.70
-4.79
-3.96
-3.38
-3.25
-3.64
-4.42
-5.25
-5.71
-5.48
-4.51
-2.97
-1.21
0.49
2.06
3.61
5.32
7.20
8.96
10.16
10.39
9.52
7.82
5.86
4.15
3.01
2.42
2.20
2.19
2.34
2.69
3.25
3.89
4.38
4.47
4.08
3.33
2.54
2.00
1.87
2.11
2.43
2.53
2.16
1.38
0.45
-0.23
-0.34
0.14
0.93
1.56
1.63
1.06
0.07
-1.02
-1.96
-2.79
-3.70
-4.91
-6.44
-8.13
-9.69
-10.90
-11.64
-11.95
-11.97
-11.86
-11.74
-11.71
-11.72
-11.63
-11.20
-10.18
-8.51
-6.41
-4.29
-2.57
-1.47
-0.92
-0.70
-0.59
-0.53
-0.54
-0.66
-0.76
-0.57
0.17
1.55
3.34
5.09
6.37
6.99
7.08
7.04
7.26
7.89
8.83
9.72
10.21
10.14
9.56
8.78
8.10
7.70
7.56
7.51
7.35
6.98
6.40
5.74
5.12
4.64
4.31
4.14
4.10
4.14
4.14
3.97
3.49
2.61
1.40
0.02
-1.24
-2.13
-2.49
-2.33
-1.76
-1.02
-0.28
0.37
0.95
1.58
2.28
2.97
3.44
3.43
2.74
1.30
-0.75
-3.13
-5.42
-7.21
-8.09
-7.86
-6.63
-4.81
-3.01
-1.72
-1.19
-1.29
-1.80
-2.44
-3.11
-3.73
-4.17
-4.18
-3.45
-1.90
0.25
2.49
4.27
5.25
5.44
5.12
4.64
4.22
3.89
3.60
3.25
2.83
2.39
1.98
1.66
1.51
1.51
1.65
1.90
2.17
2.37
2.40
2.20
1.74
1.03
0.14
-0.87
-1.91
-2.89
-3.67
-4.07
-3.98
-3.40
-2.53
-1.76
-1.51
-2.13
-3.61
-5.63
-7.60
-9.01
-9.55
-9.30
-8.55
-7.71
-7.10
-6.88
-7.02
-7.45
-8.04
-8.70
-9.29
-9.73
-9.97
-9.97
-9.85
-9.81
-10.15
-11.11
-12.61
-14.31
-15.56
-15.69
-14.28
-11.38
-7.42
-3.01
1.23
5.02
8.21
10.75
12.58
13.64
14.04
14.08
14.24
14.80
15.71
16.59
16.95
16.52
15.49
14.36
13.68
13.71
14.32
15.10
15.71
16.06
16.25
16.40
16.41
15.92
14.66
12.56
9.94
7.27
4.95
3.08
1.52
0.02
-1.55
-3.16
-4.73
-6.21
-7.66
-9.20
-10.83
-12.46
-13.91
-14.99
-15.60
-15.69
-15.24
-14.25
-12.76
-10.95
-9.06
-7.33
-5.86
-4.62
-3.48
-2.37
-1.37
-0.66
-0.38
-0.53
-0.90
-1.26
-1.48
-1.69
-2.17
-3.07
-4.32
-5.51
-6.14
-5.91
-4.86
-3.43
-2.11
-1.31
-1.00
-0.92
-0.69
-0.08
0.78
1.45
1.38
0.10
-2.61
-6.60
-11.35
-16.19
-20.35
-23.27
-24.59
-24.21
-22.21
-18.92
-14.75
-10.27
-6.00
-2.29
0.80
3.39
5.78
8.05
10.06
11.49
12.05
11.74
10.89
9.99
9.49
9.54
9.91
10.21
10.05
9.24
7.87
6.24
4.66
3.31
2.20
1.15
0.08
-0.87
-1.26
-0.63
1.14
3.54
5.53
6.21
5.39
4.01
3.70
5.93
11.22
18.88
27.33
35.11
41.43
46.19
49.48
51.12
50.75
48.60
46.07
45.57
49.19
57.26
67.43
75.27
76.37
68.80
54.61
39.05
28.15
25.54
30.68
39.47
46.87
49.95
49.39
48.82
52.31
61.98
76.98
94.40
111.52
127.15
141.48
154.47
164.51
168.83
165.61
156.23
145.78
141.04
146.64
162.34
182.77
200.47
209.88
209.78
202.67
192.07
179.52
163.47
141.03
110.51
73.16
32.67
-7.27
-45.55
-84.59
-128.82
-181.44
-241.36
-302.21
-354.10
-387.46
-396.96
-383.63
-354.59
-320.43
-291.43
-274.23
-270.12
-275.17
-281.85
-281.73
-268.08
-237.95
-193.01
-139.07
-84.54
-38.18
-7.15
4.36
-4.54
-31.69
-72.72
-122.00
-173.34
-221.00
-260.43
-288.80
-305.31
-311.00
-307.96
-298.42
-283.77
-263.72
-236.39
-199.42
-151.63
-94.54
-33.04
25.84
75.03
109.86
129.46
136.55
135.87
132.14
128.56
126.21
124.62
122.87
120.56
118.04
116.22
115.92
117.35
119.96
122.59
124.01
123.38
120.56
116.02
110.56
104.88
99.38
94.04
88.65
83.12
77.65
72.61
68.38
65.02
62.21
59.33
55.74
51.14
45.76
40.28
35.50
32.01
29.99
29.13
28.84
28.56
27.92
26.87
25.54
24.05
22.45
20.73
18.86
16.91
15.06
13.49
12.26
11.23
10.18
8.91
7.36
5.64
3.97
2.54
1.39
0.40
-0.67
-2.01
-3.74
-5.73
-7.67
-9.21
-10.04
-10.12
-9.69
-9.12
-8.81
-8.91
-9.36
-9.90
-10.26
-10.29
-9.96
-9.34
-8.45
-7.30
-5.81
-3.98
-1.88
0.25
2.07
3.24
3.54
2.95
1.63
-0.12
-1.99
-3.77
-5.33
-6.67
-7.78
-8.65
-9.21
-9.43
-9.30
-8.85
-8.13
-7.23
-6.22
-5.19
-4.19
-3.25
-2.41
-1.73
-1.33
-1.37
-1.89
-2.75
-3.60
-4.01
-3.67
-2.58
-1.03
0.55
1.73
2.34
2.43
2.15
1.71
1.20
0.66
0.13
-0.31
-0.59
-0.68
-0.61
-0.45
-0.17
0.24
0.79
1.39
1.87
2.14
2.23
2.33
2.62
3.16
3.80
4.26
4.33
4.02
3.52
3.10
2.93
3.03
3.34
3.77
4.23
4.61
4.75
4.55
4.05
3.48
3.13
3.24
3.81
4.56
5.14
5.31
5.09
4.70
4.40
4.31
4.41
4.61
4.84
5.09
5.34
5.52
5.53
5.30
4.86
4.34
3.91
3.67
3.63
3.65
3.52
3.10
2.35
1.33
0.20
-0.82
-1.58
-1.99
-2.03
-1.80
-1.38
-0.84
-0.19
0.54
1.25
1.78
2.01
1.93
1.74
1.73
2.12
2.96
4.03
5.02
5.71
6.04
6.13
6.10
6.01
5.80
5.42
4.89
4.41
4.23
4.56
5.35
6.33
7.05
7.11
6.41
5.13
3.76
2.76
2.46
2.83
3.62
4.46
5.10
5.42
5.43
5.22
4.83
4.28
3.62
2.96
2.46
2.19
2.11
2.05
1.78
1.10
-0.03
-1.50
-3.09
-4.56
-5.78
-6.64
-7.16
-7.34
-7.20
-6.83
-6.31
-5.81
-5.46
-5.29
-5.18
-4.90
-4.14
-2.77
-0.86
1.26
3.14
4.39
4.82
4.59
4.08
3.71
3.72
4.04
4.41
4.52
4.24
3.73
3.30
3.25
3.70
4.45
5.19
5.74
6.06
6.31
6.63
7.00
7.23
7.08
6.45
5.49
4.59
4.09
4.19
4.77
5.49
5.94
5.84
5.17
4.17
3.16
2.43
2.08
2.02
1.98
1.75
1.20
0.40
-0.45
-1.16
-1.63
-1.89
-2.07
-2.32
-2.72
-3.21
-3.70
-4.03
-4.15
-4.07
-3.89
-3.79
-3.91
-4.27
-4.74
-5.02
-4.86
-4.19
-3.15
-2.06
-1.21
-0.72
-0.44
-0.02
0.85
2.34
4.30
6.41
8.22
9.32
9.52
8.91
7.80
6.65
5.87
5.68
6.02
6.62
7.17
7.49
7.55
7.42
7.14
6.69
6.01
5.18
4.43
4.05
4.18
4.68
5.20
5.34
4.83
3.69
2.12
0.43
-1.12
-2.39
-3.31
-3.80
-3.84
-3.45
-2.80
-2.12
-1.67
-1.49
-1.53
-1.56
-1.40
-0.93
-0.20
0.68
1.53
2.27
2.81
3.05
2.84
2.07
0.73
-1.01
-2.69
-3.75
-3.80
-2.89
-1.63
-0.78
-0.84
-1.75
-2.88
-3.41
-2.85
-1.23
0.89
2.96
4.82
6.79
9.24
12.22
15.29
17.77
19.32
19.97
20.18
20.72
22.21
24.71
27.69
30.52
32.68
34.26
35.25
35.91
37.08
39.86
45.02
52.11
59.80
65.91
68.84
67.37
61.90
55.19
51.76
56.18
70.81
95.02
124.06
150.88
166.64
164.21
141.27
101.11
51.13
-0.52
-46.86
-84.29
-103.49
-97.02
-64.79
-15.66
38.33
88.46
126.88
153.90
169.43
173.50
164.57
141.29
105.11
58.47
4.30
-55.99
-121.35
-190.83
-262.06
-333.20
-401.36
-462.55
-512.35
-545.52
-559.05
-551.86
-525.68
-484.13
-433.04
-376.84
-317.44
-255.39
-190.43
-126.12
-68.84
-26.23
4.97
25.62
38.43
48.57
56.13
72.16
107.03
165.86
248.00
341.52
426.44
482.60
496.10
463.44
393.61
302.50
207.97
126.30
68.76
38.85
31.32
32.49
24.15
-7.55
-67.44
-149.38
-237.10
-310.04
-351.78
-355.89
-327.26
-278.52
-222.99
-172.38
-136.81
-122.01
-126.62
-138.29
-140.54
-120.70
-78.70
-28.67
19.31
58.46
88.13
111.55
135.27
164.57
199.39
236.25
272.52
306.12
332.12
344.49
339.82
317.42
279.46
231.33
174.59
126.91
108.81
125.31
163.67
206.61
241.30
271.68
297.75
320.17
329.12
324.07
313.26
291.62
256.69
210.20
156.14
97.13
33.10
-30.74
-90.09
-145.58
-200.47
-253.66
-300.01
-332.23
-344.84
-334.91
-302.73
-252.15
-189.84
-121.64
-48.71
29.17
109.38
183.80
241.76
274.78
280.23
262.08
229.32
193.16
161.15
134.52
109.02
79.33
43.18
2.49
-38.28
-74.49
-103.01
-123.82
-139.73
-155.17
-174.32
-199.81
-232.40
-270.45
-309.27
-340.94
-356.19
-347.83
-314.80
-264.07
-209.18
-165.66
-145.25
-151.76
-180.58
-221.70
-264.21
-299.97
-324.93
-338.39
-341.32
-335.24
-321.72
-302.27
-278.05
-249.55
-216.77
-179.59
-138.42
-94.56
-49.93
-6.62
33.52
68.83
97.50
117.37
126.50
124.06
111.43
92.41
72.28
56.03
46.57
44.04
46.32
50.72
55.38
60.07
65.77
73.55
83.58
94.71
104.92
112.14
115.12
113.77
109.01
102.27
94.77
87.21
79.67
71.79
63.21
53.90
44.34
35.38
27.97
22.75
19.72
18.20
17.03
14.98
11.15
5.33
-1.80
-8.63
-13.12
-13.30
-8.16
1.90
15.14
29.05
41.26
50.44
56.53
60.53
63.95
67.98
73.09
78.83
84.26
88.29
90.27
90.30
89.19
88.19
88.40
90.21
92.97
95.20
95.05
91.08
82.84
71.17
57.88
45.11
34.63
27.19
22.31
18.59
14.48
9.04
2.32
-4.79
-11.20
-16.22
-19.89
-22.84
-25.75
-28.94
-32.14
-34.67
-35.90
-35.53
-33.69
-30.67
-26.58
-21.30
-14.65
-6.93
0.84
7.08
10.21
9.33
4.61
-2.79
-11.37
-19.89
-27.71
-34.67
-40.73
-45.75
-49.53
-52.01
-53.47
-54.45
-55.34
-56.09
-56.11
-54.53
-50.67
-44.60
-37.25
-30.27
-25.48
-24.05
-26.19
-30.92
-36.47
-41.01
-43.42
-43.70
-42.91
-42.73
-44.70
-49.61
-57.15
-65.87
-73.39
-76.87
-73.47
-61.03
-38.74
-7.63
29.38
68.00
103.66
132.57
152.58
163.24
165.45
160.67
150.44
136.12
119.04
100.81
83.30
68.35
57.20
49.99
45.83
43.22
40.78
37.69
33.89
29.74
25.50
20.95
15.44
8.29
-0.65
-10.69
-20.48
-28.52
-33.70
-35.67
-34.74
-31.64
-27.17
-22.00
-16.63
-11.45
-6.76
-2.85
0.08
1.96
2.80
2.82
2.36
1.81
1.47
1.53
2.01
2.85
3.99
5.40
7.00
8.61
10.01
11.02
11.77
12.62
13.98
16.10
18.78
21.48
23.56
24.72
25.21
25.72
27.06
29.70
33.55
37.95
41.99
45.01
46.87
48.08
49.57
52.35
57.07
63.76
71.71
79.55
85.45
87.60
84.67
76.37
63.79
49.18
35.49
25.37
20.43
20.82
25.55
33.06
42.11
52.25
63.91
78.08
95.54
115.91
137.22
155.86
167.34
167.73
154.94
129.38
93.57
51.18
5.79
-39.86
-83.93
-125.08
-162.16
-194.03
-219.72
-238.71
-251.10
-257.50
-258.97
-256.85
-252.70
-248.11
-244.53
-242.85
-242.99
-243.55
-242.14
-236.00
-223.10
-203.03
-177.36
-149.25
-122.34
-99.49
-82.12
-70.11
-62.35
-57.40
-54.06
-51.19
-47.56
-41.90
-33.21
-21.11
-6.18
10.24
26.52
41.19
53.32
62.52
68.85
72.56
74.01
73.55
71.67
68.97
66.20
64.18
63.62
64.91
67.99
72.32
76.99
81.04
83.84
85.30
86.00
86.91
88.93
92.57
97.63
103.23
107.86
109.72
107.04
98.62
84.28
65.10
43.34
21.74
2.76
-12.25
-23.23
-31.13
-37.16
-42.18
-46.39
-49.35
-50.33
-48.69
-44.03
-36.21
-25.29
-11.40
5.15
23.78
43.27
61.63
76.23
84.38
84.33
76.18
62.19
46.07
31.52
20.77
13.82
8.86
3.50
-3.82
-13.26
-23.86
-34.38
-44.11
-53.07
-61.57
-69.59
-76.48
-81.09
-82.31
-79.59
-73.18
-64.00
-53.30
-42.29
-31.89
-22.65
-14.75
-8.15
-2.65
1.91
5.66
8.69
11.09
12.99
14.56
15.92
17.05
17.64
17.21
15.21
11.34
5.78
-0.65
-6.78
-11.49
-14.15
-14.74
-13.74
-11.69
-8.99
-5.82
-2.40
0.89
3.55
5.34
6.53
7.82
9.95
13.16
16.94
20.35
22.56
23.40
23.37
23.23
23.39
23.65
23.39
22.06
19.54
16.34
13.23
10.94
9.83
9.85
10.68
11.91
13.11
13.88
13.88
12.96
11.11
8.53
5.55
2.54
-0.11
-2.09
-3.19
-3.42
-3.02
-2.37
-1.88
-1.81
-2.22
-2.95
-3.83
-4.67
-5.35
-5.75
-5.72
-5.10
-3.89
-2.32
-0.89
-0.19
-0.62
-2.23
-4.70
-7.49
-10.03
-11.92
-12.95
-13.06
-12.29
-10.72
-8.59
-6.18
-3.88
-2.02
-0.74
0.07
0.67
1.31
2.13
3.04
3.90
4.59
5.05
5.37
5.55
5.56
5.31
4.76
4.02
3.32
2.90
2.86
3.13
3.51
3.86
4.19
4.60
5.14
5.78
6.29
6.43
6.08
5.33
4.42
3.67
3.23
3.03
2.85
2.40
1.51
0.26
-1.06
-2.02
-2.30
-1.78
-0.73
0.40
1.14
1.20
0.66
-0.28
-1.28
-2.16
-2.83
-3.27
-3.44
-3.29
-2.79
-2.00
-1.13
-0.46
-0.18
-0.43
-1.14
-2.19
-3.45
-4.76
-6.04
-7.22
-8.24
-9.06
-9.51
-9.41
-8.56
-6.92
-4.61
-1.97
0.61
2.86
4.72
6.24
7.52
8.53
9.14
9.21
8.70
7.73
6.56
5.50
4.79
4.54
4.77
5.38
6.17
6.94
7.55
7.94
8.18
8.33
8.44
8.47
8.35
8.05
7.67
7.41
7.50
8.03
8.87
9.70
10.18
10.05
9.27
7.97
6.38
4.73
3.19
1.87
0.76
-0.16
-0.89
-1.41
-1.66
-1.66
-1.44
-1.16
-1.03
-1.21
-1.79
-2.70
-3.73
-4.68
-5.42
-6.03
-6.66
-7.58
-8.86
-10.49
-12.31
-14.06
-15.55
-16.61
-17.08
-16.82
-15.74
-13.81
-11.20
-8.26
-5.44
-3.12
-1.46
-0.36
0.42
1.12
1.86
2.57
3.13
3.50
3.69
3.83
4.06
4.49
5.17
6.12
7.34
8.75
10.24
11.63
12.73
13.44
13.80
13.97
14.20
14.61
15.19
15.82
16.40
16.89
17.37
17.86
18.31
18.48
17.89
15.97
12.32
6.99
0.49
-6.18
-12.05
-16.44
-19.25
-20.89
-21.94
-22.78
-23.41
-23.56
-22.98
-21.69
-20.08
-18.69
-17.89
-17.74
-17.92
-18.05
-17.89
-17.43
-16.89
-16.59
-16.73
-17.27
-17.90
-18.11
-17.34
-15.31
-12.15
-8.50
-5.27
-3.26
-2.79
-3.54
-4.67
-5.29
-4.87
-3.43
-1.46
0.43
1.84
2.73
3.30
3.77
4.19
4.45
4.39
4.01
3.60
3.56
4.25
5.72
7.62
9.41
10.53
10.77
10.34
9.76
9.56
10.02
11.00
12.08
12.81
12.94
12.53
11.81
11.06
10.42
9.89
9.36
8.77
8.10
7.44
6.86
6.36
5.87
5.26
4.48
3.56
2.69
2.10
1.94
2.24
2.80
3.32
3.52
3.21
2.34
0.97
-0.83
-2.98
-5.42
-8.05
-10.71
-13.25
-15.55
-17.55
-19.13
-20.10
-20.19
-19.17
-17.06
-14.17
-11.07
-8.29
-6.19
-4.75
-3.74
-2.92
-2.20
-1.69
-1.47
-1.54
-1.70
-1.67
-1.28
-0.61
0.09
0.59
0.79
0.90
1.21
2.00
3.30
4.89
6.40
7.53
8.19
8.55
8.90
9.49
10.41
11.49
12.42
12.94
12.94
12.48
11.81
11.16
10.63
10.12
9.38
8.18
6.54
4.80
3.54
3.25
4.17
6.04
8.30
10.31
11.60
12.02
11.64
10.67
9.26
7.57
5.81
4.20
2.97
2.24
1.98
1.97
2.00
1.90
1.53
0.80
-0.45
-2.37
-4.93
-7.86
-10.63
-12.62
-13.39
-12.85
-11.34
-9.50
-7.99
-7.28
-7.42
-8.05
-8.59
-8.51
-7.58
-5.98
-4.20
-2.77
-2.00
-1.89
-2.19
-2.57
-2.74
-2.55
-1.97
-1.04
0.09
1.25
2.18
2.69
2.76
2.58
2.45
2.64
3.25
4.16
5.17
6.00
6.53
6.71
6.55
6.15
5.65
5.25
5.18
5.54
6.27
7.11
7.70
7.66
6.82
5.24
3.20
1.14
-0.58
-1.68
-2.15
-2.12
-1.88
-1.70
-1.82
-2.29
-3.05
-3.95
-4.80
-5.47
-5.96
-6.37
-6.89
-7.70
-8.84
-10.17
-11.39
-12.15
-12.13
-11.15
-9.30
-6.87
-4.29
-1.98
-0.24
0.81
1.30
1.42
1.42
1.44
1.49
1.53
1.48
1.36
1.24
1.19
1.18
1.16
1.06
0.90
0.73
0.60
0.49
0.31
0.03
-0.33
-0.60
-0.57
-0.12
0.67
1.56
2.29
2.75
3.03
3.27
3.62
4.01
4.26
4.23
3.88
3.32
2.71
2.23
1.98
2.02
2.34
2.92
3.68
4.48
5.16
5.44
5.21
4.40
3.15
1.69
0.34
-0.63
-1.09
-1.06
-0.74
-0.40
-0.26
-0.40
-0.76
-1.24
-1.76
-2.34
-3.04
-3.94
-5.05
-6.29
-7.51
-8.44
-8.82
-8.43
-7.22
-5.38
-3.35
-1.63
-0.59
-0.31
-0.49
-0.67
-0.43
0.43
1.80
3.36
4.75
5.66
5.92
5.54
4.75
3.96
3.54
3.72
4.44
5.34
5.98
6.05
5.55
4.74
4.05
3.76
3.91
4.31
4.74
5.03
5.16
5.16
5.02
4.65
3.96
2.90
1.60
0.26
-0.89
-1.65
-1.97
-1.89
-1.57
-1.18
-0.85
-0.61
-0.42
-0.16
0.27
0.87
1.53
2.04
2.19
1.81
0.92
-0.40
-1.95
-3.54
-5.01
-6.27
-7.30
-8.15
-8.94
-9.76
-10.69
-11.74
-12.91
-14.20
-15.52
-16.71
-17.47
-17.45
-16.38
-14.32
-11.65
-9.00
-6.98
-5.89
-5.57
-5.51
-5.11
-4.00
-2.22
-0.23
1.40
2.23
2.19
1.62
1.05
0.96
1.56
2.72
4.07
5.26
6.05
6.42
6.52
6.49
6.41
6.26
5.99
5.58
5.12
4.74
4.60
4.72
4.99
5.16
4.93
4.23
3.17
2.12
1.53
1.62
2.32
3.25
3.94
4.05
3.53
2.55
1.39
0.24
-0.83
-1.86
-2.82
-3.58
-3.92
-3.64
-2.70
-1.25
0.36
1.68
2.36
2.28
1.60
0.68
-0.12
-0.67
-1.16
-1.95
-3.38
-5.50
-8.06
-10.66
-12.92
-14.63
-15.73
-16.17
-15.84
-14.57
-12.34
-9.41
-6.34
-3.77
-2.12
-1.44
-1.39
-1.42
-1.07
-0.05
1.57
3.51
5.42
6.95
7.95
8.48
8.77
9.09
9.57
10.19
10.77
11.10
11.07
10.72
10.25
9.82
9.55
9.42
9.34
9.21
8.99
8.62
8.09
7.38
6.53
5.59
4.70
4.05
3.80
4.02
4.64
5.43
6.06
6.22
5.68
4.42
2.60
0.55
-1.40
-2.94
-3.89
-4.25
-4.21
-4.07
-4.21
-4.92
-6.25
-8.04
-9.95
-11.59
-12.68
-13.17
-13.13
-12.70
-12.02
-11.30
-10.77
-10.64
-10.90
-11.27
-11.26
-10.38
-8.48
-5.85
-3.16
-1.09
-0.04
0.05
-0.45
-1.00
-1.20
-0.88
-0.08
1.06
2.33
3.49
4.32
4.68
4.62
4.31
3.94
3.68
3.63
3.83
4.34
5.18
6.37
7.81
9.29
10.57
11.45
11.85
11.81
11.43
10.84
10.17
9.51
8.93
8.48
8.07
7.55
6.81
5.79
4.55
3.25
2.02
0.95
0.04
-0.68
-1.21
-1.47
-1.36
-0.87
-0.02
1.03
2.02
2.71
2.89
2.54
1.79
0.93
0.25
-0.13
-0.25
-0.35
-0.68
-1.42
-2.64
-4.26
-6.12
-8.08
-10.00
-11.76
-13.26
-14.35
-14.87
-14.71
-13.95
-12.87
-11.97
-11.69
-12.20
-13.27
-14.30
-14.62
-13.89
-12.19
-10.05
-8.09
-6.70
-5.93
-5.53
-5.15
-4.63
-3.96
-3.29
-2.74
-2.29
-1.76
-0.91
0.42
2.18
4.15
5.92
7.16
7.72
7.76
7.64
7.71
8.11
8.76
9.41
9.86
10.07
10.21
10.41
10.76
11.09
11.20
10.92
10.31
9.57
9.00
8.80
9.00
9.38
9.63
9.33
8.27
6.46
4.20
2.02
0.42
-0.35
-0.38
-0.03
0.21
0.06
-0.50
-1.33
-2.23
-3.14
-4.12
-5.21
-6.37
-7.48
-8.33
-8.76
-8.73
-8.23
-7.29
-6.06
-4.74
-3.60
-2.95
-2.91
-3.38
-4.05
-4.56
-4.71
-4.52
-4.21
-4.02
-4.11
-4.42
-4.69
-4.57
-3.75
-2.09
0.27
2.99
5.62
7.78
9.33
10.32
10.83
10.95
10.70
10.09
9.31
8.66
8.43
8.76
9.42
9.94
9.82
8.78
6.95
4.75
2.66
1.05
0.08
-0.35
-0.39
-0.20
0.06
0.28
0.37
0.27
-0.04
-0.48
-0.91
-1.20
-1.29
-1.26
-1.34
-1.83
-2.95
-4.74
-6.94
-9.10
-10.72
-11.49
-11.44
-10.95
-10.54
-10.64
-11.36
-12.45
-13.46
-13.97
-13.72
-12.73
-11.21
-9.45
-7.72
-6.22
-5.09
-4.37
-4.05
-4.05
-4.19
-4.28
-4.09
-3.52
-2.57
-1.40
-0.22
0.77
1.51
2.08
2.64
3.38
4.33
5.46
6.62
7.67
8.47
8.96
9.09
8.84
8.27
7.49
6.68
6.01
5.66
5.72
6.24
7.13
8.13
8.90
9.07
8.44
7.11
5.47
3.99
3.06
2.79
2.97
3.22
3.13
2.41
1.03
-0.78
-2.62
-4.00
-4.57
-4.26
-3.31
-2.23
-1.52
-1.50
-2.15
-3.18
-4.20
-4.92
-5.22
-5.12
-4.80
-4.45
-4.34
-4.69
-5.64
-7.16
-8.97
-10.67
-11.82
-12.11
-11.44
-9.98
-8.07
-6.11
-4.47
-3.38
-2.88
-2.78
-2.80
-2.68
-2.26
-1.48
-0.42
0.85
2.21
3.54
4.73
5.65
6.27
6.63
6.87
7.10
7.34
7.51
7.51
7.35
7.12
6.99
7.11
7.48
8.03
8.60
9.07
9.29
9.25
8.91
8.32
7.57
6.73
5.91
5.13
4.41
3.79
3.34
3.18
3.34
3.74
4.18
4.41
4.25
3.63
2.64
1.40
0.04
-1.30
-2.51
-3.48
-4.11
-4.35
-4.23
-3.91
-3.58
-3.49
-3.77
-4.52
-5.66
-6.98
-8.20
-9.03
-9.31
-9.04
-8.35
-7.34
-6.13
-4.80
-3.44
-2.20
-1.22
-0.53
-0.01
0.55
1.29
2.13
2.81
3.01
2.62
1.84
1.05
0.71
1.04
2.01
3.29
4.52
5.40
5.78
5.73
5.42
5.08
4.92
5.04
5.38
5.86
6.46
7.27
8.44
10.03
11.84
13.51
14.66
15.14
15.06
14.81
14.79
15.24
16.30
17.93
20.04
22.30
24.07
24.42
22.39
17.41
9.69
0.19
-9.73
-18.75
-26.09
-31.56
-35.43
-38.27
-40.75
-43.55
-47.18
-51.78
-56.85
-61.38
-64.10
-64.03
-60.92
-55.27
-48.03
-40.15
-32.29
-24.78
-17.83
-11.68
-6.57
-2.56
0.64
3.50
6.44
9.47
12.11
13.62
13.53
12.13
10.55
10.38
12.93
18.64
26.80
35.89
44.26
50.66
54.59
56.08
55.45
53.02
49.08
43.94
38.11
32.18
26.80
22.43
19.28
17.35
16.41
16.02
15.58
14.47
12.29
9.19
5.85
3.31
2.48
3.59
6.00
8.49
9.73
8.83
5.64
0.64
-5.40
-11.76
-18.00
-23.87
-29.22
-33.79
-37.30
-39.58
-40.72
-41.08
-41.18
-41.41
-41.87
-42.27
-42.02
-40.45
-37.04
-31.68
-24.72
-16.93
-9.29
-2.78
1.97
4.78
5.98
6.25
6.39
7.08
8.63
11.02
13.98
17.23
20.55
23.78
26.67
28.88
30.04
29.92
28.68
26.82
25.03
23.86
23.38
23.20
22.57
20.86
17.86
13.90
9.74
6.19
3.74
2.40
1.75
1.23
0.42
-0.71
-1.88
-2.75
-3.18
-3.29
-3.48
-4.11
-5.29
-6.85
-8.43
-9.71
-10.60
-11.24
-11.92
-12.89
-14.18
-15.63
-16.90
-17.68
-17.79
-17.26
-16.29
-15.12
-13.89
-12.65
-11.35
-9.98
-8.65
-7.53
-6.77
-6.38
-6.17
-5.84
-5.11
-3.83
-2.05
0.05
2.23
4.20
5.79
6.90
7.49
7.66
7.54
7.26
6.87
6.36
5.73
5.06
4.54
4.32
4.47
4.84
5.12
4.98
4.26
3.12
1.96
1.24
1.28
2.05
3.20
4.22
4.70
4.49
3.67
2.50
1.24
0.03
-1.06
-2.10
-3.14
-4.16
-5.16
-6.06
-6.80
-7.35
-7.71
-7.97
-8.24
-8.61
-9.04
-9.42
-9.58
-9.45
-9.13
-8.86
-8.91
-9.44
-10.41
-11.59
-12.72
-13.55
-13.88
-13.55
-12.31
-10.01
-6.63
-2.49
1.83
5.60
8.26
9.63
9.90
9.53
9.01
8.70
8.82
9.36
10.21
11.06
11.63
11.67
11.17
10.42
9.89
9.98
10.76
11.92
12.90
13.21
12.63
11.31
9.58
7.81
6.22
4.93
4.00
3.51
3.59
4.24
5.31
6.43
7.11
6.91
5.68
3.58
1.13
-1.07
-2.56
-3.23
-3.31
-3.26
-3.45
-4.01
-4.75
-5.42
-5.76
-5.73
-5.41
-4.92
-4.32
-3.67
-2.99
-2.39
-2.05
-2.14
-2.77
-3.95
-5.57
-7.45
-9.33
-10.90
-11.82
-11.81
-10.79
-8.92
-6.67
-4.64
-3.39
-3.24
-4.05
-5.34
-6.43
-6.76
-6.13
-4.80
-3.28
-2.05
-1.28
-0.79
-0.24
0.58
1.63
2.65
3.35
3.64
3.73
3.93
4.47
5.31
6.16
6.68
6.68
6.26
5.76
5.54
5.77
6.32
6.84
6.97
6.53
5.64
4.61
3.69
2.92
2.15
1.18
-0.03
-1.27
-2.22
-2.64
-2.50
-2.04
-1.54
-1.17
-0.85
-0.35
0.49
1.62
2.81
3.71
4.09
3.93
3.37
2.65
2.00
1.55
1.35
1.29
1.21
0.84
-0.00
-1.44
-3.36
-5.45
-7.27
-8.38
-8.51
-7.54
-5.64
-3.07
-0.29
2.27
4.26
5.60
6.49
7.27
8.24
9.40
10.48
11.09
10.98
10.19
8.98
7.75
6.75
6.10
5.74
5.58
5.52
5.47
5.31
4.93
4.28
3.42
2.46
1.62
1.04
0.79
0.84
1.12
1.48
1.81
1.99
2.00
1.96
2.09
2.50
3.16
3.87
4.30
4.27
3.83
3.32
3.15
3.63
4.88
6.72
8.77
10.50
11.27
10.43
7.50
2.45
-4.14
-11.02
-16.72
-20.04
-20.62
-19.12
-17.03
-16.04
-17.31
-20.93
-25.76
-30.04
-32.06
-30.95
-27.04
-21.61
-16.17
-11.83
-8.80
-6.61
-4.56
-2.29
0.01
1.89
3.14
4.28
6.45
10.81
17.77
26.42
34.64
39.90
40.37
35.62
26.58
14.99
2.77
-8.30
-16.56
-20.33
-18.25
-10.08
2.54
16.19
26.81
31.46
29.79
24.06
17.70
13.36
11.73
11.67
11.52
10.48
9.11
8.64
9.84
12.26
14.40
14.56
12.06
7.61
2.92
-0.23
-1.04
0.05
1.63
2.01
0.05
-4.35
-10.33
-16.57
-21.78
-25.34
-27.38
-28.52
-29.40
-30.40
-31.53
-32.65
-33.58
-34.23
-34.53
-34.29
-33.21
-31.10
-27.97
-24.17
-20.22
-16.63
-13.68
-11.38
-9.50
-7.74
-5.85
-3.72
-1.35
1.11
3.53
5.82
8.00
10.12
12.19
14.06
15.49
16.22
16.24
15.86
15.63
16.07
17.32
19.07
20.70
21.57
21.29
19.87
17.66
15.12
12.64
10.44
8.61
7.05
5.69
4.47
3.33
2.30
1.37
0.55
-0.16
-0.76
-1.16
-1.25
-0.93
-0.20
0.78
1.72
2.36
2.55
2.43
2.23
2.20
2.44
2.82
3.05
2.86
2.05
0.59
-1.44
-3.86
-6.51
-9.12
-11.49
-13.46
-14.98
-16.14
-17.09
-17.93
-18.60
-18.92
-18.62
-17.55
-15.73
-13.37
-10.82
-8.39
-6.31
-4.72
-3.67
-3.12
-3.03
-3.20
-3.38
-3.27
-2.65
-1.45
0.20
2.11
4.03
5.78
7.24
8.30
8.88
8.91
8.48
7.83
7.33
7.37
8.09
9.28
10.52
11.28
11.27
10.52
9.38
8.30
7.65
7.58
7.97
8.60
9.19
9.54
9.53
9.14
8.43
7.53
6.65
5.97
5.61
5.57
5.71
5.76
5.34
4.16
2.03
-0.92
-4.30
-7.56
-10.21
-12.00
-12.99
-13.57
-14.15
-15.06
-16.49
-18.41
-20.61
-22.83
-24.70
-25.90
-26.19
-25.40
-23.59
-20.95
-17.82
-14.54
-11.48
-8.94
-7.01
-5.64
-4.55
-3.43
-2.03
-0.27
1.72
3.67
5.30
6.40
6.86
6.76
6.36
6.02
6.15
6.93
8.28
9.79
10.94
11.34
10.89
9.83
8.51
7.24
6.13
5.12
4.18
3.33
2.68
2.34
2.33
2.49
2.61
2.52
2.10
1.39
0.47
-0.48
-1.24
-1.64
-1.62
-1.25
-0.75
-0.39
-0.28
-0.37
-0.41
-0.18
0.43
1.24
1.95
2.21
1.86
0.90
-0.46
-1.96
-3.41
-4.68
-5.76
-6.60
-7.19
-7.52
-7.60
-7.55
-7.50
-7.52
-7.51
-7.22
-6.40
-4.90
-2.90
-0.84
0.73
1.44
1.28
0.56
-0.18
-0.45
-0.01
1.11
2.75
4.60
6.32
7.63
8.32
8.38
8.01
7.60
7.52
7.91
8.61
9.21
9.30
8.62
7.31
5.73
4.32
3.39
2.98
2.93
3.01
3.04
2.97
2.80
2.52
2.11
1.51
0.73
-0.07
-0.63
-0.60
0.20
1.70
3.55
5.23
6.30
6.49
5.89
4.73
3.33
1.99
0.88
0.11
-0.28
-0.32
-0.08
0.32
0.71
0.89
0.70
-0.05
-1.39
-3.32
-5.63
-8.12
-10.49
-12.52
-14.09
-15.17
-15.76
-15.84
-15.40
-14.44
-13.10
-11.53
-9.92
-8.39
-6.95
-5.58
-4.25
-2.96
-1.73
-0.59
0.41
1.16
1.57
1.68
1.61
1.68
2.20
3.31
4.90
6.55
7.78
8.26
8.04
7.44
6.91
6.69
6.75
6.88
6.88
6.68
6.47
6.52
7.01
7.95
9.16
10.32
11.21
11.69
11.74
11.37
10.56
9.29
7.58
5.56
3.45
1.56
0.11
-0.79
-1.19
-1.31
-1.38
-1.62
-2.17
-3.10
-4.42
-6.05
-7.85
-9.62
-11.21
-12.50
-13.49
-14.27
-14.96
-15.68
-16.50
-17.38
-18.14
-18.50
-18.09
-16.58
-13.86
-10.21
-6.19
-2.58
-0.00
1.34
1.72
1.76
2.09
3.02
4.49
6.13
7.46
8.14
8.06
7.37
6.33
5.24
4.39
3.96
4.04
4.59
5.52
6.67
7.80
8.60
8.80
8.30
7.18
5.78
4.55
3.86
3.88
4.49
5.44
6.43
7.20
7.53
7.28
6.45
5.21
3.92
3.01
2.81
3.34
4.34
5.34
5.97
6.02
5.49
4.51
3.24
1.86
0.54
-0.55
-1.27
-1.59
-1.60
-1.48
-1.39
-1.42
-1.64
-2.09
-2.82
-3.82
-4.98
-6.13
-7.18
-8.17
-9.28
-10.65
-12.15
-13.36
-13.68
-12.68
-10.40
-7.37
-4.37
-2.08
-0.73
-0.13
0.15
0.45
0.90
1.42
1.89
2.30
2.77
3.41
4.27
5.24
6.16
6.87
7.27
7.33
7.06
6.50
5.72
4.82
4.02
3.49
3.40
3.76
4.45
5.24
5.98
6.50
6.76
6.76
6.51
6.05
5.45
4.83
4.28
3.81
3.38
2.87
2.20
1.35
0.42
-0.44
-1.05
-1.32
-1.25
-0.95
-0.59
-0.35
-0.40
-0.78
-1.44
-2.27
-3.06
-3.71
-4.23
-4.81
-5.69
-7.07
-8.97
-11.19
-13.45
-15.46
-17.00
-17.90
-18.07
-17.39
-15.87
-13.69
-11.18
-8.85
-7.05
-5.91
-5.16
-4.33
-2.97
-0.92
1.59
4.12
6.13
7.36
7.80
7.70
7.39
7.08
6.87
6.64
6.33
5.97
5.69
5.61
5.72
5.88
5.87
5.62
5.26
5.13
5.49
6.40
7.55
8.47
8.70
8.06
6.65
4.80
2.90
1.27
0.05
-0.72
-1.11
-1.24
-1.23
-1.23
-1.29
-1.37
-1.40
-1.29
-1.00
-0.59
-0.15
0.23
0.46
0.51
0.34
-0.09
-0.78
-1.67
-2.72
-3.85
-5.09
-6.46
-8.02
-9.75
-11.56
-13.24
-14.53
-15.19
-15.01
-13.91
-11.98
-9.43
-6.63
-4.01
-1.89
-0.36
0.68
1.50
2.36
3.33
4.31
5.02
5.25
4.92
4.23
3.52
3.19
3.50
4.44
5.84
7.36
8.75
9.78
10.36
10.45
10.04
9.15
7.85
6.32
4.78
3.47
2.51
1.91
1.53
1.19
0.76
0.18
-0.50
-1.20
-1.85
-2.42
-2.94
-3.52
-4.22
-5.04
-5.95
-6.80
-7.44
-7.84
-8.11
-8.42
-8.92
-9.60
-10.35
-10.98
-11.39
-11.62
-11.80
-12.01
-12.16
-12.03
-11.38
-10.08
-8.32
-6.42
-4.70
-3.30
-2.08
-0.73
1.03
3.28
5.85
8.36
10.41
11.73
12.24
12.05
11.41
10.58
9.82
9.28
9.10
9.26
9.64
9.99
10.02
9.52
8.47
7.11
5.86
5.13
5.12
5.71
6.48
6.96
6.77
5.77
4.09
2.03
-0.02
-1.73
-2.91
-3.56
-3.82
-3.90
-3.95
-4.05
-4.22
-4.50
-4.95
-5.62
-6.51
-7.50
-8.36
-8.96
-9.23
-9.35
-9.55
-9.97
-10.44
-10.63
-10.14
-8.82
-6.94
-4.92
-3.22
-2.03
-1.19
-0.37
0.70
2.06
3.55
4.83
5.76
6.35
6.75
7.12
7.45
7.64
7.51
6.98
6.10
5.10
4.27
3.83
3.89
4.42
5.19
5.92
6.37
6.49
6.36
6.20
6.24
6.55
7.06
7.56
7.82
7.77
7.44
6.98
6.59
6.32
6.18
6.07
5.94
5.75
5.57
5.45
5.39
5.30
5.01
4.41
3.50
2.46
1.56
0.99
0.80
0.84
0.86
0.64
0.05
-0.87
-1.97
-3.05
-3.99
-4.74
-5.40
-6.12
-7.08
-8.36
-9.88
-11.40
-12.53
-12.90
-12.30
-10.83
-8.83
-6.82
-5.24
-4.23
-3.68
-3.27
-2.71
-1.96
-1.20
-0.71
-0.57
-0.68
-0.71
-0.46
0.11
0.82
1.43
1.87
2.23
2.72
3.46
4.45
5.56
6.62
7.54
8.32
9.02
9.62
10.10
10.42
10.54
10.36
9.80
8.80
7.43
5.92
4.57
3.65
3.19
3.01
2.87
2.55
2.01
1.33
0.62
-0.04
-0.61
-1.09
-1.40
-1.48
-1.33
-1.05
-0.77
-0.59
-0.56
-0.72
-1.17
-2.00
-3.21
-4.65
-5.95
-6.77
-6.94
-6.60
-6.16
-6.07
-6.59
-7.77
-9.45
-11.38
-13.31
-14.93
-15.92
-16.03
-15.15
-13.40
-11.15
-8.86
-6.91
-5.43
-4.33
-3.39
-2.43
-1.41
-0.42
0.36
0.81
0.94
0.90
0.88
1.07
1.56
2.35
3.34
4.38
5.29
5.91
6.15
5.98
5.55
5.13
4.98
5.26
5.91
6.72
7.39
7.69
7.49
6.90
6.09
5.27
4.59
4.18
4.10
4.32
4.75
5.12
5.20
4.82
4.01
3.00
2.10
1.56
1.44
1.64
1.93
2.13
2.13
1.95
1.63
1.15
0.46
-0.47
-1.64
-2.98
-4.33
-5.59
-6.69
-7.63
-8.47
-9.26
-10.07
-10.91
-11.81
-12.75
-13.73
-14.73
-15.65
-16.33
-16.55
-16.09
-14.86
-12.95
-10.59
-8.09
-5.70
-3.55
-1.70
-0.15
1.09
2.03
2.72
3.27
3.78
4.32
4.89
5.50
6.14
6.90
7.83
8.92
10.09
11.19
12.08
12.73
13.09
13.15
12.86
12.17
11.11
9.85
8.58
7.51
6.77
6.35
6.18
6.19
6.33
6.52
6.72
6.87
6.94
6.96
6.96
6.94
6.82
6.58
6.20
5.73
5.22
4.65
3.99
3.14
2.11
1.01
0.02
-0.74
-1.35
-1.99
-2.90
-4.09
-5.42
-6.58
-7.34
-7.69
-7.88
-8.29
-9.23
-10.81
-12.85
-14.99
-16.82
-17.95
-18.15
-17.34
-15.59
-13.13
-10.35
-7.67
-5.45
-3.85
-2.80
-2.02
-1.21
-0.14
1.20
2.68
4.09
5.20
5.85
5.96
5.61
4.96
4.36
4.12
4.48
5.42
6.66
7.75
8.30
8.17
7.62
7.12
7.07
7.59
8.41
9.02
9.03
8.37
7.33
6.34
5.73
5.48
5.31
4.93
4.24
3.51
3.18
3.62
4.84
6.49
7.95
8.62
8.16
6.62
4.39
1.97
-0.25
-2.08
-3.54
-4.76
-5.81
-6.71
-7.48
-8.14
-8.72
-9.26
-9.72
-10.03
-10.14
-10.10
-10.06
-10.22
-10.74
-11.68
-13.03
-14.62
-16.21
-17.45
-17.94
-17.27
-15.31
-12.26
-8.73
-5.53
-3.33
-2.41
-2.57
-3.22
-3.78
-3.76
-3.04
-1.80
-0.36
0.97
2.01
2.76
3.35
3.92
4.57
5.28
5.98
6.57
7.07
7.49
7.89
8.23
8.46
8.49
8.30
7.95
7.57
7.28
7.17
7.26
7.54
7.89
8.15
8.13
7.74
7.02
6.14
5.31
4.69
4.34
4.13
3.94
3.62
3.16
2.51
1.68
0.67
-0.45
-1.56
-2.46
-3.00
-3.09
-2.81
-2.37
-2.04
-2.05
-2.49
-3.32
-4.29
-5.16
-5.69
-5.81
-5.59
-5.22
-4.95
-5.04
-5.66
-6.88
-8.66
-10.78
-12.87
-14.47
-15.08
-14.43
-12.58
-9.98
-7.26
-5.08
-3.77
-3.26
-3.11
-2.83
-2.06
-0.80
0.66
1.99
2.96
3.59
4.05
4.49
4.93
5.38
5.84
6.35
7.05
7.91
8.83
9.60
9.97
9.86
9.31
8.51
7.63
6.81
6.08
5.47
5.04
4.90
5.10
5.60
6.16
6.49
6.39
5.83
5.03
4.28
3.76
3.52
3.40
3.20
2.84
2.35
1.85
1.40
1.01
0.59
0.13
-0.31
-0.59
-0.61
-0.40
-0.15
-0.11
-0.40
-1.07
-2.04
-3.20
-4.49
-5.79
-7.05
-8.22
-9.30
-10.39
-11.63
-13.13
-14.84
-16.56
-17.92
-18.59
-18.35
-17.19
-15.25
-12.78
-10.04
-7.32
-4.90
-2.92
-1.51
-0.63
-0.22
-0.08
-0.00
0.28
0.92
1.87
2.96
3.90
4.50
4.77
4.93
5.28
6.00
7.10
8.30
9.28
9.80
9.81
9.49
9.07
8.77
8.62
8.57
8.47
8.21
7.84
7.52
7.40
7.55
7.84
7.99
7.79
7.16
6.30
5.54
5.16
5.28
5.68
6.03
5.96
5.32
4.22
2.96
1.88
1.23
1.08
1.25
1.44
1.41
1.01
0.29
-0.56
-1.34
-1.99
-2.58
-3.23
-4.00
-4.85
-5.54
-5.93
-5.99
-5.90
-6.08
-6.88
-8.48
-10.79
-13.43
-15.87
-17.62
-18.36
-18.10
-17.11
-15.83
-14.60
-13.56
-12.57
-11.32
-9.62
-7.52
-5.30
-3.32
-1.81
-0.79
-0.10
0.44
0.98
1.59
2.33
3.38
4.81
6.62
8.57
10.33
11.61
12.27
12.39
12.20
11.94
11.77
11.76
11.90
12.15
12.41
12.51
12.30
11.65
10.60
9.27
7.86
6.59
5.56
4.85
4.48
4.41
4.59
4.92
5.29
5.57
5.63
5.35
4.72
3.82
2.82
1.96
1.43
1.32
1.56
1.94
2.20
2.13
1.70
1.03
0.30
-0.31
-0.76
-1.18
-1.76
-2.70
-4.06
-5.76
-7.58
-9.33
-10.89
-12.25
-13.39
-14.24
-14.62
-14.30
-13.17
-11.35
-9.15
-7.01
-5.25
-3.97
-3.01
-2.10
-1.02
0.23
1.44
2.30
2.64
2.42
1.91
1.49
1.53
2.19
3.43
4.95
6.38
7.44
7.98
8.10
8.02
7.96
8.05
8.31
8.60
8.79
8.80
8.59
8.17
7.53
6.63
5.44
4.03
2.63
1.47
0.81
0.81
1.41
2.42
3.56
4.53
5.11
5.17
4.67
3.73
2.51
1.24
0.13
-0.64
-0.99
-0.97
-0.74
-0.54
-0.62
-1.11
-2.01
-3.19
-4.49
-5.78
-7.00
-8.11
-9.15
-10.17
-11.28
-12.60
-14.17
-15.93
-17.63
-18.90
-19.40
-18.94
-17.54
-15.49
-13.15
-10.89
-8.94
-7.40
-6.23
-5.33
-4.55
-3.75
-2.81
-1.70
-0.45
0.85
2.09
3.15
3.93
4.43
4.76
5.08
5.53
6.17
6.85
7.37
7.51
7.21
6.66
6.14
5.90
5.97
6.18
6.29
6.17
5.90
5.69
5.74
6.09
6.57
6.95
7.09
6.94
6.59
6.16
5.74
5.41
5.16
4.97
4.78
4.48
4.00
3.29
2.47
1.70
1.14
0.79
0.50
0.06
-0.70
-1.72
-2.75
-3.48
-3.69
-3.39
-2.80
-2.28
-2.15
-2.56
-3.47
-4.64
-5.84
-6.89
-7.70
-8.30
-8.77
-9.26
-9.87
-10.60
-11.36
-11.96
-12.18
-11.90
-11.09
-9.89
-8.53
-7.24
-6.09
-5.10
-4.17
-3.25
-2.34
-1.48
-0.67
0.19
1.28
2.74
4.57
6.61
8.58
10.23
11.42
12.16
12.55
12.67
12.53
12.11
11.41
10.49
9.48
8.58
7.93
7.57
7.47
7.48
7.42
7.15
6.62
5.83
4.93
4.02
3.22
2.61
2.16
1.88
1.74
1.73
1.84
2.05
2.31
2.59
2.86
3.06
3.18
3.14
2.90
2.38
1.59
0.52
-0.77
-2.19
-3.65
-5.01
-6.15
-7.00
-7.54
-7.84
-7.99
-8.11
-8.24
-8.47
-8.83
-9.42
-10.32
-11.55
-12.97
-14.29
-15.13
-15.12
-14.16
-12.41
-10.34
-8.46
-7.14
-6.42
-5.99
-5.40
-4.28
-2.62
-0.68
1.12
2.50
3.40
4.00
4.57
5.21
5.86
6.38
6.67
6.79
6.82
6.87
6.92
6.90
6.72
6.40
6.03
5.79
5.83
6.18
6.78
7.46
8.01
8.25
8.12
7.64
6.96
6.26
5.66
5.22
4.88
4.53
4.10
3.61
3.12
2.72
2.49
2.45
2.50
2.56
2.54
2.39
2.14
1.75
1.20
0.44
-0.49
-1.50
-2.42
-3.12
-3.57
-3.85
-4.13
-4.53
-5.08
-5.69
-6.29
-6.84
-7.44
-8.22
-9.34
-10.87
-12.72
-14.73
-16.66
-18.24
-19.17
-19.20
-18.18
-16.16
-13.42
-10.39
-7.52
-5.14
-3.37
-2.12
-1.25
-0.65
-0.24
-0.04
-0.04
-0.16
-0.27
-0.19
0.22
1.05
2.31
3.90
5.58
7.01
7.93
8.27
8.17
7.94
7.82
7.88
7.97
7.83
7.35
6.62
5.93
5.58
5.71
6.20
6.82
7.32
7.58
7.62
7.51
7.36
7.17
6.89
6.42
5.68
4.74
3.75
3.01
2.80
3.19
4.01
4.80
5.09
4.58
3.40
1.94
0.72
0.04
-0.11
-0.04
-0.11
-0.49
-1.08
-1.60
-1.74
-1.40
-0.73
-0.12
0.07
-0.43
-1.63
-3.37
-5.36
-7.32
-8.99
-10.14
-10.56
-10.14
-8.91
-7.06
-4.93
-2.90
-1.27
-0.17
0.45
0.75
0.92
1.08
1.32
1.58
1.85
2.11
2.40
2.80
3.38
4.05
4.65
4.97
4.86
4.38
3.73
3.25
3.18
3.57
4.26
4.95
5.32
5.20
4.59
3.68
2.72
1.96
1.56
1.55
1.81
2.16
2.37
2.30
1.92
1.28
0.50
-0.34
-1.20
-2.09
-2.99
-3.82
-4.43
-4.75
-4.78
-4.67
-4.67
-4.94
-5.55
-6.44
-7.43
-8.37
-9.12
-9.64
-9.92
-10.08
-10.28
-10.74
-11.55
-12.66
-13.86
-14.87
-15.44
-15.45
-14.89
-13.83
-12.38
-10.66
-8.88
-7.27
-6.01
-5.14
-4.54
-3.96
-3.18
-2.10
-0.80
0.55
1.81
2.85
3.60
4.07
4.28
4.40
4.61
5.08
5.79
6.57
7.11
7.17
6.71
5.88
4.97
4.29
4.01
4.16
4.62
5.18
5.64
5.86
5.78
5.46
5.06
4.75
4.62
4.66
4.81
4.99
5.20
5.47
5.86
6.32
6.72
6.88
6.69
6.12
5.24
4.20
3.07
1.95
0.90
-0.04
-0.83
-1.44
-1.91
-2.35
-2.86
-3.59
-4.56
-5.69
-6.79
-7.65
-8.10
-8.14
-7.93
-7.73
-7.81
-8.30
-9.18
-10.28
-11.32
-12.06
-12.31
-11.97
-11.07
-9.77
-8.31
-6.93
-5.84
-5.09
-4.61
-4.24
-3.80
-3.21
-2.53
-1.87
-1.34
-1.01
-0.80
-0.62
-0.35
0.08
0.67
1.39
2.15
2.88
3.49
3.98
4.41
4.88
5.50
6.30
7.21
8.13
8.99
9.74
10.43
11.07
11.57
11.76
11.48
10.72
9.67
8.70
8.15
8.16
8.60
9.11
9.35
9.10
8.45
7.60
6.90
6.51
6.46
6.63
6.83
6.89
6.69
6.17
5.29
4.11
2.73
1.35
0.14
-0.83
-1.62
-2.33
-3.06
-3.83
-4.60
-5.35
-6.11
-7.01
-8.18
-9.70
-11.50
-13.36
-14.96
-15.93
-15.91
-14.70
-12.35
-9.26
-6.05
-3.39
-1.71
-1.01
-0.89
-0.87
-0.57
0.05
0.80
1.43
1.83
2.08
2.29
2.59
2.98
3.41
3.82
4.24
4.67
5.14
5.56
5.81
5.82
5.50
4.96
4.33
3.84
3.59
3.62
3.81
3.94
3.83
3.35
2.57
1.68
0.90
0.40
0.18
0.17
0.18
0.14
-0.01
-0.18
-0.26
-0.15
0.17
0.64
1.10
1.36
1.29
0.87
0.20
-0.50
-1.05
-1.33
-1.36
-1.27
-1.21
-1.23
-1.26
-1.19
-1.01
-0.84
-0.96
-1.64
-3.04
-5.01
-7.20
-9.19
-10.67
-11.52
-11.78
-11.60
-11.10
-10.29
-9.17
-7.80
-6.30
-4.87
-3.67
-2.67
-1.76
-0.77
0.42
1.75
2.96
3.68
3.63
2.78
1.49
0.34
-0.08
0.56
2.08
3.97
5.57
6.43
6.49
6.04
5.51
5.21
5.17
5.21
5.14
4.96
4.82
4.91
5.28
5.71
5.92
5.67
4.98
4.10
3.36
3.00
3.03
3.29
3.52
3.55
3.34
2.96
2.60
2.41
2.45
2.74
3.22
3.78
4.26
4.48
4.31
3.66
2.58
1.13
-0.53
-2.23
-3.81
-5.15
-6.20
-6.97
-7.52
-7.96
-8.40
-8.96
-9.82
-11.05
-12.63
-14.35
-15.84
-16.62
-16.33
-14.87
-12.47
-9.63
-6.90
-4.66
-3.02
-1.85
-0.88
0.13
1.27
2.52
3.76
4.86
5.79
6.52
7.13
7.69
8.32
9.08
10.00
11.03
12.03
12.88
13.41
13.58
13.41
13.01
12.55
12.20
12.13
12.40
12.98
13.66
14.19
14.30
13.86
12.92
11.72
10.57
9.77
9.41
9.35
9.29
8.91
7.96
6.43
4.54
2.57
0.79
-0.65
-1.77
-2.68
-3.50
-4.31
-5.17
-6.07
-7.00
-7.96
-8.90
-9.75
-10.43
-10.86
-11.05
-11.07
-11.12
-11.40
-12.08
-13.22
-14.69
-16.13
-17.09
-17.14
-16.08
-14.03
-11.44
-8.84
-6.65
-5.08
-4.05
-3.33
-2.67
-1.87
-0.91
0.16
1.27
2.38
3.45
4.47
5.39
6.07
6.40
6.34
5.97
5.46
5.07
4.93
5.03
5.21
5.27
5.10
4.78
4.55
4.67
5.32
6.39
7.64
8.74
9.45
9.67
9.49
9.03
8.37
7.53
6.47
5.22
3.92
2.75
1.89
1.42
1.25
1.17
0.97
0.48
-0.29
-1.20
-2.06
-2.68
-3.01
-3.15
-3.30
-3.67
-4.40
-5.43
-6.62
-7.69
-8.45
-8.83
-8.93
-8.95
-9.12
-9.65
-10.60
-11.94
-13.46
-14.85
-15.78
-15.93
-15.18
-13.62
-11.52
-9.28
-7.23
-5.59
-4.39
-3.52
-2.85
-2.33
-1.89
-1.52
-1.15
-0.70
-0.09
0.69
1.56
2.37
3.01
3.45
3.77
4.08
4.48
5.00
5.54
5.96
6.12
5.98
5.54
4.93
4.26
3.69
3.31
3.17
3.31
3.71
4.31
5.00
5.61
6.02
6.16
6.05
5.85
5.72
5.74
5.82
5.80
5.54
5.08
4.57
4.24
4.21
4.44
4.71
4.73
4.31
3.46
2.34
1.17
0.11
-0.79
-1.56
-2.29
-3.06
-3.90
-4.76
-5.56
-6.20
-6.71
-7.16
-7.68
-8.29
-8.86
-9.06
-8.58
-7.25
-5.14
-2.65
-0.21
1.77
3.13
3.96
4.49
4.99
5.65
6.54
7.49
8.26
8.62
8.49
7.99
7.45
7.15
7.26
7.68
8.15
8.41
8.35
8.08
7.78
7.58
7.47
7.36
7.13
6.71
6.13
5.44
4.69
3.90
3.06
2.14
1.19
0.34
-0.24
-0.36
0.04
0.87
1.84
2.59
2.82
2.47
1.73
0.88
0.13
-0.57
-1.43
-2.68
-4.33
-6.19
-7.85
-9.04
-9.69
-10.02
-10.34
-10.93
-11.84
-12.97
-14.21
-15.49
-16.78
-18.00
-18.93
-19.19
-18.38
-16.33
-13.20
-9.51
-5.93
-3.02
-1.09
-0.06
0.40
0.64
0.88
1.18
1.48
1.70
1.84
1.98
2.17
2.42
2.65
2.79
2.83
2.86
3.00
3.30
3.72
4.10
4.33
4.34
4.15
3.85
3.50
3.13
2.75
2.42
2.23
2.34
2.81
3.61
4.58
5.45
5.96
5.93
5.28
4.09
2.59
1.05
-0.22
-1.02
-1.30
-1.13
-0.66
-0.04
0.61
1.23
1.75
2.10
2.17
1.88
1.18
0.14
-1.08
-2.33
-3.46
-4.47
-5.42
-6.45
-7.67
-9.17
-10.91
-12.74
-14.39
-15.55
-15.93
-15.41
-14.10
-12.31
-10.42
-8.76
-7.42
-6.31
-5.21
-3.94
-2.49
-0.95
0.57
2.02
3.41
4.73
5.81
6.45
6.50
6.00
5.21
4.48
4.04
3.89
3.86
3.74
3.51
3.33
3.46
4.00
4.86
5.75
6.39
6.65
6.58
6.34
6.03
5.69
5.24
4.62
3.86
3.12
2.61
2.43
2.54
2.73
2.73
2.36
1.59
0.56
-0.48
-1.30
-1.79
-2.00
-2.07
-2.17
-2.45
-2.95
-3.69
-4.56
-5.42
-6.06
-6.28
-5.96
-5.13
-4.02
-2.97
-2.32
-2.33
-3.03
-4.33
-5.99
-7.78
-9.48
-10.86
-11.65
-11.63
-10.62
-8.69
-6.13
-3.44
-1.07
0.72
2.01
3.08
4.21
5.50
6.82
7.91
8.56
8.74
8.58
8.37
8.32
8.55
9.05
9.75
10.58
11.42
12.11
12.40
12.06
10.93
9.03
6.65
4.18
2.05
0.63
0.06
0.27
1.03
2.06
3.07
3.89
4.47
4.82
5.01
5.11
5.13
5.04
4.76
4.29
3.68
3.02
2.41
1.91
1.48
1.03
0.40
-0.50
-1.72
-3.18
-4.76
-6.29
-7.67
-8.86
-9.88
-10.76
-11.56
-12.33
-13.12
-14.03
-15.10
-16.25
-17.24
-17.70
-17.31
-15.95
-13.79
-11.26
-8.88
-7.01
-5.76
-4.98
-4.42
-3.86
-3.19
-2.45
-1.66
-0.86
-0.01
0.99
2.21
3.65
5.24
6.81
8.15
9.06
9.44
9.35
8.98
8.53
8.16
7.91
7.67
7.31
6.72
5.89
4.93
4.05
3.46
3.29
3.49
3.91
4.37
4.69
4.82
4.76
4.60
4.42
4.22
4.00
3.69
3.32
2.91
2.56
2.31
2.13
1.92
1.52
0.82
-0.23
-1.51
-2.78
-3.75
-4.23
-4.17
-3.76
-3.35
-3.30
-3.90
-5.25
-7.26
-9.72
-12.32
-14.73
-16.55
-17.42
-17.05
-15.39
-12.75
-9.71
-7.01
-5.20
-4.43
-4.41
-4.56
-4.28
-3.31
-1.79
-0.15
1.15
1.84
1.95
1.73
1.47
1.47
1.83
2.54
3.52
4.63
5.83
7.06
8.31
9.51
10.54
11.21
11.34
10.91
10.13
9.36
8.96
9.10
9.67
10.31
10.63
10.41
9.71
8.78
7.93
7.30
6.88
6.49
5.92
5.07
3.98
2.93
2.14
1.77
1.80
1.97
1.95
1.49
0.50
-0.88
-2.36
-3.68
-4.75
-5.62
-6.45
-7.32
-8.19
-8.91
-9.33
-9.46
-9.51
-9.80
-10.57
-11.77
-13.06
-13.86
-13.64
-12.19
-9.70
-6.73
-3.87
-1.51
0.26
1.70
3.10
4.65
6.30
7.86
9.09
9.85
10.22
10.35
10.38
10.39
10.30
10.01
9.43
8.63
7.76
7.08
6.76
6.78
6.94
6.96
6.64
5.94
5.08
4.23
3.56
3.03
2.52
1.94
1.31
0.78
0.52
0.54
0.74
0.93
0.96
0.77
0.41
-0.04
-0.56
-1.11
-1.66
-2.20
-2.75
-3.47
-4.58
-6.23
-8.34
-10.51
-12.19
-12.91
-12.57
-11.53
-10.45
-9.96
-10.34
-11.47
-12.86
-13.95
-14.42
-14.22
-13.55
-12.63
-11.56
-10.26
-8.60
-6.55
-4.22
-1.96
-0.12
1.09
1.70
2.01
2.46
3.37
4.77
6.40
7.83
8.76
9.08
8.95
8.67
8.50
8.48
8.50
8.40
8.00
7.41
6.84
6.57
6.79
7.52
8.57
9.62
10.40
10.68
10.43
9.79
8.95
8.08
7.22
6.35
5.42
4.47
3.63
3.06
2.85
2.88
2.92
2.64
1.88
0.67
-0.74
-2.04
-3.07
-3.83
-4.50
-5.26
-6.23
-7.39
-8.65
-9.90
-11.13
-12.40
-13.81
-15.38
-17.03
-18.55
-19.70
-20.24
-20.01
-18.96
-17.21
-14.97
-12.56
-10.24
-8.20
-6.50
-5.03
-3.62
-2.12
-0.47
1.26
2.88
4.20
5.12
5.66
5.97
6.27
6.73
7.42
8.29
9.16
9.82
10.08
9.80
8.91
7.53
5.91
4.39
3.35
3.01
3.41
4.40
5.60
6.68
7.38
7.64
7.50
7.14
6.68
6.21
5.75
5.31
4.91
4.60
4.38
4.22
4.01
3.67
3.14
2.49
1.87
1.48
1.38
1.58
1.89
2.14
2.16
1.86
1.23
0.31
-0.83
-2.05
-3.15
-3.91
-4.22
-4.15
-3.95
-4.06
-4.89
-6.61
-9.01
-11.56
-13.51
-14.22
-13.37
-11.06
-7.83
-4.35
-1.27
1.00
2.35
2.97
3.16
3.25
3.44
3.77
4.20
4.61
4.91
5.04
5.07
5.09
5.20
5.50
5.97
6.44
6.73
6.65
6.14
5.34
4.47
3.85
3.69
4.08
4.90
5.90
6.78
7.31
7.36
6.96
6.23
5.39
4.63
4.11
3.85
3.81
3.86
3.93
3.94
3.82
3.45
2.72
1.58
0.14
-1.34
-2.50
-3.12
-3.22
-3.06
-3.03
-3.43
-4.33
-5.58
-6.87
-7.95
-8.74
-9.31
-9.82
-10.44
-11.28
-12.33
-13.47
-14.50
-15.08
-14.95
-13.97
-12.23
-10.10
-8.07
-6.57
-5.73
-5.42
-5.28
-4.95
-4.23
-3.14
-1.82
-0.43
0.95
2.27
3.51
4.60
5.46
6.13
6.67
7.18
7.71
8.13
8.26
7.95
7.28
6.50
5.99
