1481228880.00
64.000000
-0.00
-0.00
-0.00
-0.00
-0.00
-0.00
-0.00
-0.00
-0.00
-0.00
0.00
0.01
0.01
-0.00
-0.03
-0.05
-0.05
0.00
0.13
0.36
0.66
1.01
1.37
1.72
2.06
2.40
2.79
3.24
3.80
4.42
5.06
5.66
6.20
6.68
7.15
7.68
8.31
9.14
10.09
11.04
11.88
12.56
13.14
13.76
14.65
15.96
17.91
20.32
22.90
25.38
27.58
29.57
31.68
34.32
37.81
42.54
48.15
54.10
59.83
64.97
69.58
74.14
79.34
85.71
93.76
103.00
112.62
121.73
129.77
136.75
143.30
150.75
157.77
166.64
177.95
191.79
206.97
220.57
228.25
225.36
208.53
176.87
132.76
80.05
23.07
-34.94
-92.44
-149.16
-205.23
-260.37
-313.74
-363.87
-409.83
-450.91
-486.50
-515.74
-537.23
-549.22
-549.96
-538.37
-514.21
-478.67
-433.88
-382.45
-327.02
-269.84
-212.63
-156.66
-102.95
-52.37
-5.90
35.58
71.43
101.35
125.50
144.38
158.69
169.15
176.37
180.75
182.57
182.07
179.51
175.23
169.65
163.18
156.15
148.81
141.30
133.69
126.02
118.33
110.69
103.16
95.80
88.68
81.83
75.25
68.95
62.95
57.25
51.86
46.78
42.03
37.59
33.45
29.61
26.07
22.81
19.83
17.11
14.67
12.48
10.54
8.83
7.35
6.07
4.97
4.05
3.27
2.62
2.09
1.65
1.30
1.01
0.79
0.61
0.48
0.37
0.29
0.22
0.18
0.14
0.11
0.09
0.08
0.07
0.06
0.05
0.05
0.04
0.04
0.04
0.03
0.03
0.03
0.03
0.03
0.03
0.03
0.03
0.04
0.05
0.07
0.09
0.11
0.14
0.17
0.21
0.25
0.29
0.33
0.37
0.42
0.46
0.51
0.56
0.61
0.67
0.72
0.79
0.86
0.93
1.02
1.11
1.21
1.32
1.45
1.60
1.76
1.94
2.14
2.36
2.61
2.88
3.17
3.50
3.86
4.25
4.67
5.13
5.62
6.15
6.73
7.33
7.99
8.69
9.43
10.21
11.04
11.91
12.82
13.79
14.82
15.91
17.06
18.25
19.48
20.69
21.82
22.78
23.50
23.83
23.67
22.90
21.43
19.22
16.27
12.68
8.57
4.12
-0.42
-4.85
-8.97
-12.64
-15.75
-18.23
-20.06
-21.21
-21.73
-21.68
-21.15
-20.27
-19.21
-18.11
-17.06
-16.09
-15.16
-14.16
-13.07
-11.86
-10.62
-9.45
-8.51
-7.87
-7.49
-7.17
-6.66
-5.87
-4.74
-3.44
-2.27
-1.56
-1.53
-2.14
-3.04
-3.81
-4.23
-4.22
-3.96
-3.93
-4.68
-6.49
-9.29
-12.54
-15.56
-18.02
-19.67
-20.64
-21.43
-22.74
-25.38
-30.09
-37.22
-46.31
-56.23
-64.56
-68.46
-65.91
-56.63
-42.42
-26.50
-12.47
-0.47
8.21
13.35
15.60
15.75
14.19
10.90
5.79
-0.85
-8.11
-15.06
-20.27
-22.44
-20.75
-15.10
-5.98
5.58
18.32
30.90
41.86
50.36
56.05
59.07
59.80
58.84
56.79
54.19
51.54
49.07
47.17
46.16
46.17
47.02
48.29
49.40
49.82
49.25
47.47
44.54
40.56
35.60
29.71
22.99
15.58
7.67
-0.53
-8.72
-16.43
-23.11
-28.34
-32.11
-34.82
-37.20
-39.95
-43.43
-47.57
-51.85
-55.55
-57.89
-58.12
-55.61
-50.03
-41.43
-30.50
-18.45
-6.72
3.58
11.87
18.23
23.08
26.83
29.70
31.67
32.58
32.43
31.33
29.60
27.72
26.16
25.29
25.27
25.94
26.88
27.56
27.56
26.67
25.03
22.98
20.83
18.81
16.91
15.02
12.95
10.57
7.73
4.36
0.33
-4.50
-10.18
-16.67
-23.82
-31.33
-38.86
-45.99
-52.28
-57.20
-60.07
-60.25
-57.28
-51.08
-42.10
-31.25
-19.70
-8.54
1.39
9.61
15.94
20.38
23.04
24.05
23.65
22.17
20.02
17.52
14.88
12.12
9.22
6.23
3.30
0.73
-1.23
-2.50
-3.23
-3.73
-4.40
-5.55
-7.39
-10.01
-13.37
-17.25
-21.24
-24.79
-27.41
-28.80
-29.15
-29.03
-29.27
-30.56
-33.16
-36.74
-40.41
-42.98
-43.26
-40.40
-34.08
-24.65
-13.00
-0.40
11.77
22.32
30.46
35.77
38.18
37.90
35.32
31.08
26.01
21.03
16.98
14.25
12.72
11.88
11.05
9.72
7.74
5.26
2.58
0.00
-2.37
-4.52
-6.57
-8.75
-11.34
-14.62
-18.72
-23.49
-28.52
-33.31
-37.54
-41.25
-44.81
-48.74
-53.26
-58.09
-62.37
-64.88
-64.38
-59.93
-51.26
-38.77
-23.55
-7.10
8.92
23.06
34.33
42.25
46.88
48.57
47.89
45.46
41.94
37.96
34.06
30.67
27.88
25.58
23.47
21.24
18.81
16.35
14.17
12.53
11.53
10.96
10.40
9.42
7.71
5.26
2.24
-1.02
-4.23
-7.21
-9.87
-12.21
-14.38
-16.53
-18.82
-21.25
-23.47
-24.74
-24.01
-20.37
-13.41
-3.50
8.27
20.49
31.85
41.50
49.07
54.46
57.64
58.58
57.38
54.35
50.11
45.42
41.06
37.50
34.95
33.30
32.35
31.83
31.47
30.97
30.10
28.74
26.88
24.66
22.14
19.24
15.66
11.06
5.41
-1.06
-7.85
-14.51
-20.69
-26.29
-31.45
-36.35
-41.15
-45.86
-50.58
-55.61
-61.34
-67.93
-75.07
-82.05
-88.00
-92.35
-94.71
-95.33
-95.01
-94.77
-95.34
-96.94
-99.20
-101.34
-102.32
-100.16
-93.40
-81.97
-67.21
-51.23
-36.03
-23.23
-13.78
-8.00
-4.00
-0.14
3.69
6.25
6.41
4.07
0.05
-4.42
-8.17
-7.48
0.26
14.77
33.30
52.79
71.39
88.47
104.18
119.19
138.14
164.54
198.15
235.12
270.75
301.84
327.20
347.43
341.20
298.38
227.65
151.01
85.93
37.80
4.24
-19.24
-36.53
-50.65
-60.36
-64.95
-65.72
-65.15
-64.32
-62.47
-58.89
-54.76
-53.04
-53.98
-56.84
-60.55
-64.18
-66.67
-67.23
-66.17
-64.86
-64.70
-64.26
-61.52
-55.57
-47.37
-38.88
-32.00
-27.90
-26.79
-27.99
-29.16
-28.19
-24.16
-17.84
-10.92
-5.35
-2.61
-3.19
-6.32
-9.68
-10.83
-8.42
-2.94
3.73
9.29
12.08
11.81
9.29
6.00
2.72
-0.51
-4.31
-9.14
-14.72
-20.20
-24.89
-29.09
-33.72
-39.61
-46.18
-51.05
-50.85
-43.12
-28.06
-8.55
9.54
21.52
25.47
22.81
16.98
11.40
7.74
5.79
4.27
2.14
-0.38
-2.30
-2.59
-1.03
1.74
4.56
6.19
6.08
4.46
2.30
0.68
0.41
1.60
3.78
6.07
7.62
8.00
7.27
6.03
4.99
4.74
5.45
6.90
8.64
10.11
11.02
11.30
11.22
11.12
11.31
11.83
12.66
13.73
15.11
16.99
19.37
21.80
23.27
22.51
18.63
11.70
2.98
-5.56
-12.00
-15.45
-16.19
-15.43
-14.39
-13.66
-13.00
-11.71
-9.27
-5.58
-0.87
4.60
10.80
17.69
24.68
30.32
32.33
28.37
17.16
-0.78
-22.93
-45.46
-64.33
-76.44
-80.40
-76.61
-67.03
-54.40
-41.66
-31.43
-25.35
-23.84
-25.94
-29.66
-32.58
-32.61
-28.69
-20.44
-8.57
5.46
19.77
32.28
41.10
45.14
44.73
41.73
38.92
38.28
39.59
40.17
36.22
25.12
7.35
-13.30
-31.43
-42.53
-44.79
-39.34
-29.12
-17.17
-5.70
4.06
11.37
15.58
16.28
13.71
8.93
3.61
-0.65
-2.97
-3.27
-2.20
-0.60
0.75
1.25
0.55
-1.44
-4.61
-8.54
-12.49
-15.50
-16.58
-14.96
-10.47
-3.75
3.90
11.09
16.73
20.57
23.20
25.57
28.44
31.90
35.28
37.55
37.60
34.75
28.66
19.17
6.05
-10.69
-30.71
-53.06
-76.14
-97.96
-116.57
-130.63
-139.64
-143.79
-143.69
-140.07
-133.67
-125.37
-116.18
-107.22
-99.41
-93.16
-88.34
-84.36
-80.54
-76.46
-71.99
-67.25
-62.36
-57.30
-51.92
-45.91
-39.06
-31.27
-22.54
-12.98
-2.70
8.20
19.64
31.41
43.20
54.43
64.34
72.17
77.51
80.42
81.39
80.89
79.20
76.18
71.41
64.63
56.19
47.25
39.69
35.60
36.65
43.53
55.85
72.09
90.03
107.22
121.65
132.18
138.58
141.33
141.24
139.50
137.02
134.17
130.75
126.16
119.79
111.19
100.23
87.10
72.89
58.69
45.13
32.17
19.47
7.04
-4.56
-14.34
-21.43
-24.47
-23.23
-18.79
-13.34
-9.00
-6.71
-6.10
-5.87
-4.48
1.04
13.34
33.76
61.58
93.90
126.36
154.34
174.31
175.98
155.11
115.17
66.46
20.30
-16.71
-43.73
-63.04
-77.01
-86.94
-91.91
-91.46
-86.75
-80.50
-75.66
-73.79
-74.67
-76.70
-78.09
-76.72
-71.84
-64.40
-56.68
-50.96
-48.35
-48.34
-49.33
-49.69
-47.75
-43.02
-36.33
-29.41
-24.11
-21.69
-22.66
-26.62
-32.27
-36.97
-37.56
-31.50
-18.00
0.95
21.41
38.76
49.38
51.91
47.50
38.81
28.47
18.09
8.06
-1.65
-10.91
-19.04
-25.14
-28.66
-29.78
-29.35
-28.48
-28.12
-28.51
-29.28
-29.66
-28.93
-26.85
-23.75
-20.58
-18.42
-18.03
-19.45
-21.98
-24.53
-26.12
-26.32
-25.42
-24.31
-24.07
-25.63
-29.47
-35.48
-42.46
-48.80
-52.64
-52.27
-46.60
-35.50
-19.87
-1.41
17.82
35.88
51.26
63.10
71.13
75.56
76.83
75.50
72.13
67.23
61.31
54.81
48.12
41.51
35.15
29.01
23.11
17.51
12.52
8.43
5.43
3.38
1.81
0.05
-2.54
-6.29
-11.20
-16.91
-22.97
-28.95
-34.66
-40.12
-45.61
-51.55
-58.30
-65.90
-73.86
-81.05
-85.92
-86.92
-83.07
-74.37
-61.90
-47.48
-33.18
-20.74
-11.21
-4.93
-1.68
-0.97
-2.18
-4.66
-7.76
-10.84
-13.32
-14.81
-15.11
-14.18
-12.10
-8.85
-4.31
1.77
9.55
18.94
29.45
40.22
50.23
58.56
64.64
68.32
69.86
69.66
68.11
65.50
61.90
57.19
51.13
43.44
33.93
22.77
10.66
-1.09
-10.84
-16.99
-18.55
-15.50
-8.84
-0.29
8.27
15.26
19.78
21.64
21.06
18.53
14.55
9.64
4.39
-0.56
-4.53
-6.94
-7.35
-5.43
-0.92
6.37
16.51
29.26
43.98
59.45
74.09
86.19
94.19
97.06
94.46
86.80
75.09
60.81
45.54
30.68
17.15
5.19
-5.59
-16.03
-27.03
-39.02
-51.59
-63.47
-72.72
-77.42
-76.28
-69.17
-57.10
-41.86
-25.52
-9.87
3.78
14.59
22.12
26.15
26.72
24.22
19.39
13.22
6.71
0.56
-4.96
-9.99
-14.87
-19.87
-24.97
-29.92
-34.33
-37.89
-40.58
-42.67
-44.68
-47.12
-50.38
-54.56
-59.41
-64.47
-69.19
-73.19
-76.32
-78.83
-81.29
-84.40
-88.68
-94.21
-100.37
-105.80
-108.69
-107.13
-99.74
-86.02
-66.61
-43.08
-17.55
7.84
31.32
51.74
68.53
81.59
91.09
97.39
100.92
102.17
101.65
99.89
97.34
94.32
91.02
87.53
83.91
80.21
76.54
72.99
69.64
66.47
63.34
59.95
55.95
50.99
44.80
37.35
28.81
19.53
9.99
0.60
-8.31
-16.65
-24.62
-32.65
-41.31
-51.08
-62.02
-73.42
-83.77
-91.03
-93.20
-89.04
-78.52
-62.93
-44.43
-25.47
-8.12
6.35
17.43
25.16
29.75
31.37
30.02
25.76
18.83
9.76
-0.68
-11.65
-22.41
-32.33
-40.89
-47.63
-52.14
-54.32
-54.47
-53.36
-51.97
-51.21
-51.63
-53.43
-56.53
-60.92
-66.67
-73.94
-82.71
-92.73
-103.48
-114.30
-124.63
-134.17
-142.86
-150.87
-158.32
-165.06
-170.44
-173.18
-171.61
-164.04
-149.39
-127.58
-99.68
-67.66
-33.79
-0.16
31.68
60.76
86.52
108.54
126.54
140.37
150.15
156.33
159.56
160.55
159.86
157.82
154.66
150.67
146.35
142.38
139.39
137.64
136.82
136.20
134.84
132.03
127.46
121.24
113.70
105.08
95.47
84.83
73.18
60.75
47.92
35.18
22.92
11.27
0.15
-10.68
-21.41
-32.18
-42.89
-53.16
-62.39
-69.69
-74.02
-74.46
-70.36
-61.61
-48.82
-33.17
-16.20
0.51
15.69
28.49
38.56
45.83
50.45
52.64
52.70
51.01
48.05
44.40
40.60
37.05
33.90
31.09
28.49
25.98
23.57
21.38
19.50
17.91
16.39
14.65
12.44
9.70
6.59
3.41
0.42
-2.30
-4.88
-7.56
-10.58
-14.05
-17.84
-21.68
-25.20
-28.08
-30.23
-31.81
-33.22
-35.00
-37.65
-41.38
-45.92
-50.44
-53.55
-53.71
-49.61
-40.72
-27.49
-11.29
5.98
22.45
36.73
48.12
56.48
61.97
64.85
65.32
63.63
60.16
55.43
50.08
44.70
39.68
35.21
31.25
27.69
24.47
21.59
19.12
17.11
15.52
14.22
13.01
11.72
10.19
8.32
6.02
3.25
0.06
-3.39
-6.84
-10.03
-12.87
-15.49
-18.17
-21.26
-24.93
-29.06
-33.32
-37.25
-40.48
-42.85
-44.44
-45.51
-46.43
-47.63
-49.54
-52.44
-56.23
-60.34
-63.60
-64.55
-61.80
-54.61
-43.11
-28.38
-12.04
4.18
18.88
31.25
40.96
48.01
52.53
54.73
54.88
53.35
50.58
47.10
43.34
39.68
36.37
33.56
31.30
29.59
28.40
27.63
27.15
26.77
26.33
25.68
24.74
23.46
21.85
19.88
17.55
14.88
11.91
8.74
5.55
2.50
-0.27
-2.70
-4.87
-6.83
-8.63
-10.30
-11.92
-13.67
-15.84
-18.64
-22.19
-26.37
-31.02
-35.97
-41.32
-47.49
-54.85
-63.39
-72.41
-80.44
-85.65
-86.44
-81.99
-72.65
-59.97
-46.17
-33.42
-23.16
-15.95
-11.44
-8.77
-6.66
-3.98
-0.09
5.04
11.08
17.38
23.09
27.27
29.01
27.90
23.81
16.63
6.30
-6.82
-21.90
-37.71
-52.71
-65.20
-73.12
-74.73
-69.34
-57.50
-40.74
-21.38
-2.14
14.79
25.99
29.81
28.14
24.81
22.82
23.05
24.44
25.16
23.73
19.66
13.90
7.90
3.30
0.27
-1.29
-2.01
-3.03
-5.70
-10.88
-18.20
-26.28
-33.15
-36.40
-33.86
-24.45
-8.31
12.90
36.87
62.00
87.67
110.01
125.57
133.32
135.15
134.19
133.08
132.96
133.71
133.64
130.36
122.49
110.58
97.10
85.40
78.19
75.73
77.00
78.06
75.46
67.54
54.55
38.22
21.06
5.91
-5.20
-10.88
-11.16
-7.50
-2.19
2.19
3.47
-0.23
-6.09
-12.96
-19.82
-26.27
-32.37
-38.18
-43.37
-47.12
-48.49
-47.09
-44.11
-41.65
-42.20
-47.61
-58.16
-72.38
-87.36
-99.51
-105.39
-103.10
-92.31
-74.68
-53.76
-34.39
-21.51
-18.69
-26.90
-44.05
-65.88
-87.05
-102.95
-111.06
-111.33
-105.71
-97.03
-87.77
-79.37
-72.22
-65.79
-59.33
-52.35
-44.80
-36.95
-29.16
-21.64
-14.57
-8.16
-2.75
1.33
3.92
5.36
6.45
8.17
11.24
15.77
21.33
27.24
32.97
38.50
44.32
51.12
59.29
68.60
78.04
85.90
90.21
89.18
81.75
68.08
49.69
29.21
9.81
-5.79
-15.99
-20.76
-21.39
-19.85
-17.87
-16.44
-15.55
-14.48
-12.37
-8.61
-3.09
3.91
11.95
20.63
29.72
39.06
48.45
57.41
65.23
71.07
74.18
74.23
71.47
66.71
60.97
55.00
48.92
42.24
34.10
23.90
11.67
-1.85
-15.46
-28.06
-39.09
-48.66
-57.34
-65.84
-74.57
-83.43
-91.90
-99.23
-104.81
-108.34
-110.03
-110.55
-110.86
-111.96
-114.55
-118.80
-124.18
-129.55
-133.40
-134.22
-131.05
-123.62
-112.47
-98.74
-83.83
-69.01
-55.26
-43.21
-33.18
-25.27
-19.23
-14.39
-9.58
-3.28
6.00
19.35
37.06
58.58
82.69
107.93
132.96
156.85
179.12
199.62
218.25
234.81
248.79
259.43
265.83
267.09
262.63
252.32
236.67
216.69
193.63
168.69
142.64
115.75
88.03
59.49
30.50
1.87
-25.47
-50.73
-73.66
-94.53
-113.93
-132.39
-150.04
-166.49
-180.74
-191.44
-197.20
-196.99
-190.46
-178.15
-161.37
-141.82
-121.13
-100.61
-81.11
-63.27
-47.64
-34.77
-25.03
-18.40
-14.44
-12.42
-11.62
-11.57
-12.09
-13.12
-14.53
-15.98
-17.02
-17.26
-16.48
-14.77
-12.46
-9.98
-7.79
-6.29
-5.63
-5.82
-6.64
-7.79
-9.04
-10.33
-11.81
-13.76
-16.36
-19.64
-23.39
-27.31
-31.14
-34.81
-38.53
-42.66
-47.63
-53.68
-60.71
-68.00
-74.32
-78.06
-77.72
-72.28
-61.62
-46.47
-28.27
-8.69
10.73
28.80
44.73
58.04
68.49
76.02
80.84
83.35
84.10
83.62
82.26
80.16
77.29
73.66
69.43
64.94
60.68
57.09
54.35
52.31
50.57
48.61
45.97
42.42
37.97
32.88
27.50
22.18
17.15
12.40
7.75
2.87
-2.52
-8.53
-15.02
-21.61
-27.92
-33.68
-38.91
-43.85
-48.94
-54.60
-61.11
-68.36
-75.70
-81.96
-85.59
-85.07
-79.47
-68.80
-54.09
-37.11
-19.84
-3.89
9.79
20.86
29.46
35.84
40.23
42.78
43.61
42.89
40.89
37.94
34.42
30.72
27.19
24.12
21.69
19.99
18.98
18.49
18.32
18.24
18.08
17.75
17.19
16.32
15.04
13.24
10.82
7.74
4.11
0.05
-4.30
-8.81
-13.38
-17.96
-22.52
-27.15
-32.04
-37.52
-43.90
-51.22
-58.96
-65.99
-70.70
-71.51
-67.40
-58.34
-45.41
-30.37
-15.19
-1.44
10.02
18.96
25.55
30.05
32.61
33.28
32.21
29.72
26.25
22.31
18.30
14.44
10.87
7.66
5.04
3.30
2.76
3.67
5.97
9.40
13.42
17.45
20.96
23.59
25.24
25.91
25.68
24.59
22.56
19.51
15.39
10.30
4.45
-1.88
-8.40
-14.95
-21.45
-27.99
-34.78
-42.12
-50.20
-58.88
-67.43
-74.55
-78.56
-77.87
-71.64
-60.05
-44.41
-26.68
-8.92
7.26
20.99
32.04
40.57
46.84
51.09
53.50
54.33
53.92
52.71
51.06
49.22
47.27
45.20
43.00
40.75
38.61
36.77
35.34
34.27
33.34
32.19
30.51
28.03
24.65
20.47
15.74
10.80
5.99
1.54
-2.53
-6.39
-10.32
-14.53
-19.12
-23.97
-28.82
-33.39
-37.50
-41.17
-44.60
-48.22
-52.47
-57.74
-64.02
-70.75
-76.73
-80.27
-79.69
-73.85
-62.64
-47.09
-29.05
-10.58
6.60
21.52
33.83
43.57
50.90
55.88
58.62
59.34
58.51
56.73
54.56
52.34
50.17
48.00
45.71
43.38
41.21
39.46
38.31
37.80
37.72
37.70
37.34
36.29
34.38
31.62
28.20
24.40
20.54
16.85
13.41
10.18
7.05
3.92
0.78
-2.29
-5.22
-7.97
-10.64
-13.43
-16.59
-20.23
-24.34
-28.76
-33.19
-37.36
-41.08
-44.27
-47.06
-49.82
-53.04
-57.07
-61.92
-66.89
-70.57
-71.16
-67.03
-57.39
-42.70
-24.57
-5.33
12.72
27.93
39.56
47.71
52.97
55.97
57.23
57.03
55.55
52.97
49.57
45.66
41.56
37.54
33.82
30.60
28.11
26.53
26.01
26.45
27.59
28.95
30.04
30.44
29.98
28.73
26.92
24.82
22.66
20.48
18.21
15.65
12.64
9.15
5.30
1.37
-2.36
-5.77
-8.94
-12.09
-15.41
-19.03
-22.88
-26.78
-30.58
-34.13
-37.42
-40.51
-43.51
-46.66
-50.20
-54.29
-58.74
-62.94
-65.77
-65.88
-62.10
-53.86
-41.47
-26.05
-9.19
7.45
22.51
35.13
44.87
51.61
55.37
56.28
54.65
51.02
46.12
40.77
35.68
31.35
27.92
25.36
23.48
22.09
21.06
20.27
19.62
18.98
18.23
17.20
15.72
13.69
11.07
7.97
4.55
1.08
-2.24
-5.29
-8.18
-11.13
-14.41
-18.22
-22.55
-27.20
-31.84
-36.15
-39.95
-43.22
-46.16
-49.08
-52.42
-56.57
-61.65
-67.41
-72.95
-76.83
-77.38
-73.20
-63.73
-49.50
-31.99
-13.20
4.97
21.15
34.73
45.62
54.03
60.18
64.20
66.13
66.01
64.06
60.61
56.16
51.25
46.34
41.79
37.73
34.25
31.35
29.05
27.37
26.33
25.80
25.55
25.23
24.55
23.29
21.37
18.91
16.07
13.03
9.87
6.56
2.95
-1.11
-5.74
-10.92
-16.50
-22.17
-27.54
-32.27
-36.14
-39.15
-41.43
-43.28
-45.06
-47.16
-49.96
-53.81
-58.84
-64.72
-70.56
-74.94
-76.21
-73.14
-65.29
-53.38
-38.93
-23.79
-9.46
3.25
14.17
23.41
30.99
36.68
40.14
41.26
40.29
37.90
34.89
31.93
29.40
27.39
25.87
24.84
24.35
24.45
25.19
26.41
27.86
29.25
30.25
30.63
30.22
28.98
26.94
24.20
20.99
17.49
13.92
10.34
6.72
2.89
-1.38
-6.25
-11.70
-17.46
-23.15
-28.35
-32.81
-36.48
-39.58
-42.47
-45.58
-49.30
-53.90
-59.29
-64.89
-69.54
-71.65
-69.64
-62.54
-50.41
-34.46
-16.66
0.85
16.40
29.08
38.68
45.32
49.25
50.65
49.76
46.91
42.66
37.62
32.32
27.08
22.02
17.19
12.69
8.70
5.45
3.09
1.62
0.91
0.68
0.69
0.71
0.65
0.50
0.30
0.01
-0.47
-1.33
-2.79
-4.94
-7.76
-10.98
-14.28
-17.32
-19.88
-21.95
-23.77
-25.72
-28.26
-31.83
-36.72
-42.82
-49.56
-55.67
-59.43
-59.02
-53.18
-41.70
-25.59
-6.90
12.02
29.12
43.21
54.00
61.76
66.98
70.02
71.11
70.46
68.40
65.37
61.77
57.86
53.72
49.32
44.70
40.03
35.68
32.09
29.59
28.21
27.69
27.54
27.19
26.17
24.26
21.43
17.87
13.88
9.80
5.95
2.51
-0.51
-3.30
-6.20
-9.51
-13.37
-17.65
-21.97
-25.84
-28.97
-31.34
-33.28
-35.34
-38.14
-42.13
-47.43
-53.62
-59.67
-64.06
-65.10
-61.44
-52.51
-38.87
-22.05
-4.12
12.94
27.68
39.40
48.05
53.94
57.49
59.09
59.00
57.52
54.89
51.50
47.71
43.97
40.59
37.74
35.41
33.44
31.70
30.12
28.77
27.72
26.89
25.98
24.63
22.50
19.53
15.90
11.95
8.02
4.31
0.88
-2.34
-5.44
-8.51
-11.66
-14.97
-18.51
-22.20
-25.89
-29.32
-32.30
-34.74
-36.74
-38.54
-40.49
-42.96
-46.28
-50.53
-55.39
-59.98
-62.90
-62.57
-57.76
-48.15
-34.53
-18.64
-2.58
11.79
23.33
31.74
37.23
40.28
41.28
40.53
38.29
34.93
30.91
26.76
22.94
19.77
17.36
15.67
14.64
14.19
14.28
14.88
15.87
17.07
18.21
19.05
19.41
19.20
18.39
17.00
15.09
12.76
10.10
7.28
4.43
1.61
-1.19
-4.09
-7.23
-10.68
-14.37
-18.08
-21.56
-24.62
-27.24
-29.60
-32.01
-34.79
-38.18
-42.32
-47.20
-52.62
-58.16
-63.01
-66.04
-66.03
-62.05
-53.81
-41.84
-27.37
-11.95
2.95
16.19
27.09
35.34
40.87
43.77
44.28
42.81
39.85
35.94
31.56
27.11
22.92
19.19
16.06
13.60
11.82
10.71
10.25
10.36
10.83
11.28
11.27
10.41
8.55
5.85
2.77
-0.23
-2.87
-5.15
-7.39
-9.97
-13.17
-17.02
-21.29
-25.60
-29.60
-33.07
-36.06
-38.79
-41.62
-44.94
-49.08
-54.15
-59.81
-65.21
-69.02
-69.64
-65.71
-56.64
-42.85
-25.75
-7.35
10.40
26.02
38.79
48.63
55.79
60.55
63.12
63.70
62.51
60.00
56.67
53.07
49.60
46.51
43.85
41.56
39.59
37.89
36.50
35.47
34.81
34.41
33.99
33.16
31.53
28.82
25.02
20.38
15.33
10.27
5.43
0.72
-4.08
-9.27
-14.94
-20.97
-27.01
-32.74
-37.95
-42.62
-46.96
-51.26
-55.79
-60.74
-66.20
-72.09
-78.00
-83.16
-86.41
-86.46
-82.22
-73.24
-59.87
-43.32
-25.26
-7.44
8.73
22.39
33.18
41.13
46.42
49.30
50.08
49.15
46.97
44.09
40.96
37.90
35.05
32.40
29.95
27.77
26.00
24.77
24.06
23.69
23.35
22.71
21.55
19.79
17.53
14.96
12.28
9.61
6.94
4.10
0.87
-2.99
-7.51
-12.56
-17.81
-22.91
-27.61
-31.87
-35.87
-39.90
-44.36
-49.54
-55.48
-61.78
-67.49
-71.16
-71.21
-66.40
-56.33
-41.65
-23.92
-5.12
12.89
28.80
41.99
52.26
59.68
64.37
66.49
66.28
64.13
60.64
56.47
52.24
48.38
45.06
42.21
39.63
37.15
34.70
32.40
30.47
29.06
28.13
27.41
26.43
24.77
22.19
18.73
14.74
10.64
6.83
3.46
0.40
-2.68
-6.17
-10.34
-15.25
-20.64
-26.10
-31.19
-35.58
-39.19
-42.19
-44.92
-47.82
-51.32
-55.78
-61.34
-67.74
-74.13
-79.09
-80.85
-77.81
-69.13
-55.08
-37.09
-17.30
2.11
19.40
33.68
44.73
52.80
58.23
61.36
62.44
61.75
59.68
56.67
53.17
49.55
46.09
42.90
40.09
37.75
35.93
34.67
33.90
33.50
33.24
32.92
32.37
31.44
30.04
28.07
25.47
22.21
18.38
14.14
9.71
5.26
0.87
-3.46
-7.76
-12.03
-16.22
-20.33
-24.35
-28.32
-32.22
-35.94
-39.37
-42.41
-45.21
-48.16
-51.75
-56.43
-62.23
-68.62
-74.49
-78.35
-78.71
-74.54
-65.52
-52.22
-36.03
-18.72
-1.99
12.89
25.28
35.04
42.34
47.34
50.14
50.81
49.53
46.65
42.69
38.20
33.72
29.60
26.08
23.30
21.27
19.98
19.33
19.16
19.29
19.52
19.64
19.45
18.75
17.38
15.23
12.36
8.96
5.37
1.91
-1.21
-4.00
-6.71
-9.68
-13.18
-17.28
-21.73
-26.12
-30.01
-33.15
-35.52
-37.35
-39.04
-41.03
-43.74
-47.51
-52.39
-58.00
-63.39
-67.10
-67.52
-63.37
-54.18
-40.53
-23.85
-6.05
11.06
26.18
38.61
48.15
54.92
59.12
60.98
60.77
58.85
55.70
51.82
47.68
43.60
39.74
36.14
32.82
29.89
27.51
25.88
25.07
24.90
24.98
24.80
23.95
22.22
19.75
16.83
13.78
10.81
7.85
4.77
1.38
-2.37
-6.38
-10.47
-14.46
-18.24
-21.84
-25.37
-28.95
-32.67
-36.54
-40.46
-44.22
-47.63
-50.51
-52.86
-54.89
-56.92
-59.41
-62.76
-67.09
-72.08
-76.84
-79.95
-79.74
-74.84
-64.61
-49.54
-31.16
-11.64
6.96
23.11
36.19
46.25
53.68
58.88
62.05
63.32
62.89
61.06
58.26
54.91
51.34
47.68
44.06
40.65
37.65
35.27
33.67
32.79
32.41
32.19
31.75
30.81
29.19
26.89
24.08
21.00
17.90
14.88
11.88
8.69
5.12
1.14
-3.05
-7.11
-10.74
-13.82
-16.56
-19.32
-22.46
-26.20
-30.46
-34.98
-39.38
-43.30
-46.58
-49.22
-51.52
-53.96
-57.08
-61.20
-66.16
-71.15
-74.73
-75.27
-71.37
-62.44
-48.91
-32.08
-13.78
4.20
20.47
34.19
44.97
52.73
57.54
59.55
59.05
56.49
52.43
47.51
42.32
37.35
32.89
29.14
26.09
23.72
21.98
20.81
20.21
20.10
20.34
20.64
20.69
20.16
18.83
16.64
13.70
10.23
6.55
3.00
-0.23
-3.11
-5.82
-8.64
-11.83
-15.52
-19.60
-23.82
-27.89
-31.57
-34.76
-37.51
-39.98
-42.49
-45.43
-49.23
-54.15
-60.03
-66.12
-71.03
-73.11
-70.84
-63.41
-51.01
-34.81
-16.64
1.55
18.14
32.13
43.13
51.19
56.52
59.36
59.92
58.44
55.28
50.88
45.78
40.45
35.24
30.39
26.07
22.44
19.66
17.92
17.28
17.58
18.44
19.31
19.61
18.91
17.09
14.34
11.07
7.75
4.74
2.10
-0.32
-2.84
-5.79
-9.34
-13.48
-18.05
-22.79
-27.48
-31.96
-36.16
-40.16
-44.15
-48.43
-53.35
-59.02
-65.10
-70.56
-73.87
-73.29
-67.56
-56.34
-40.47
-21.77
-2.41
15.59
30.90
42.92
51.67
57.40
60.40
60.94
59.31
55.92
51.32
46.12
40.85
35.86
31.34
27.35
23.97
21.35
19.69
19.19
19.85
21.51
23.67
25.68
26.82
26.53
24.57
21.07
16.51
11.50
6.55
1.87
-2.61
-7.15
-11.98
-17.20
-22.70
-28.25
-33.52
-38.21
-42.17
-45.38
-48.13
-50.91
-54.38
-59.12
-65.32
-72.48
-79.24
-83.68
-83.77
-78.06
-66.17
-49.05
-28.63
-7.29
12.86
30.40
44.75
55.92
64.15
69.66
72.58
73.07
71.48
68.38
64.45
60.24
56.07
51.96
47.84
43.72
39.90
36.82
34.84
34.06
34.14
34.43
34.25
33.15
31.08
28.32
25.28
22.26
19.33
16.30
12.92
9.05
4.76
0.29
-4.05
-8.08
-11.85
-15.61
-19.69
-24.33
-29.46
-34.77
-39.78
-44.05
-47.37
-49.82
-51.81
-53.90
-56.73
-60.76
-66.09
-72.22
-78.00
-81.72
-81.50
-75.89
-64.37
-47.67
-27.54
-6.35
13.70
30.97
44.69
54.76
61.53
65.45
66.94
66.36
64.08
60.54
56.25
51.69
47.29
43.37
40.06
37.44
35.56
34.44
34.07
34.29
34.77
35.08
34.78
33.59
31.50
28.75
25.70
22.68
19.89
17.34
14.90
12.34
9.46
6.13
2.38
-1.62
-5.64
-9.48
-13.05
-16.48
-19.95
-23.64
-27.57
-31.62
-35.52
-39.03
-42.06
-44.72
-47.31
-50.29
-54.12
-59.01
-64.67
-70.13
-73.77
-73.75
-68.59
-57.76
-41.96
-22.99
-3.17
15.35
31.10
43.42
52.26
57.93
60.81
61.22
59.51
56.13
51.57
46.39
41.08
36.00
31.40
27.42
24.17
21.74
20.19
19.56
19.78
20.68
21.94
23.14
23.87
23.83
22.90
21.17
18.93
16.45
13.94
11.44
8.82
5.94
2.73
-0.69
-4.13
-7.39
-10.39
-13.27
-16.26
-19.56
-23.23
-27.13
-30.95
-34.44
-37.47
-40.13
-42.68
-45.42
-48.68
-52.70
-57.56
-63.00
-68.29
-72.19
-73.15
-69.80
-61.47
-48.56
-32.53
-15.48
0.59
14.29
25.05
32.98
38.42
41.65
42.78
41.87
39.18
35.21
30.67
26.27
22.50
19.53
17.28
15.57
14.29
13.39
12.94
12.97
13.51
14.42
15.46
16.33
16.74
16.49
15.49
13.84
11.72
9.40
7.06
4.75
2.36
-0.30
-3.45
-7.24
-11.68
-16.63
-21.81
-26.86
-31.44
-35.29
-38.45
-41.21
-44.08
-47.64
-52.27
-57.89
-63.81
-68.79
-71.27
-69.82
-63.57
-52.50
-37.51
-20.24
-2.58
13.74
27.48
38.04
45.34
49.60
51.21
50.60
48.22
44.59
40.30
35.89
31.78
28.20
25.23
22.83
20.95
19.57
18.65
18.18
18.07
18.18
18.35
18.31
17.79
16.57
14.47
11.54
7.96
4.09
0.30
-3.21
-6.44
-9.60
-12.99
-16.85
-21.21
-25.93
-30.68
-35.11
-38.96
-42.15
-44.81
-47.27
-50.03
-53.57
-58.25
-64.05
-70.32
-75.81
-78.80
-77.60
-71.12
-59.27
-43.02
-24.16
-4.70
13.59
29.49
42.38
52.05
58.59
62.16
63.12
61.92
59.17
55.49
51.40
47.29
43.31
39.52
35.89
32.48
29.42
26.96
25.33
24.61
24.68
25.14
25.46
25.15
23.91
21.74
18.89
15.71
12.46
9.20
5.81
2.02
-2.39
-7.45
-12.98
-18.62
-24.01
-28.89
-33.22
-37.19
-41.16
-45.50
-50.56
-56.46
-62.93
-69.18
-73.86
-75.35
-72.19
-63.60
-49.88
-32.37
-13.13
5.72
22.49
36.23
46.68
54.00
58.52
60.56
60.44
58.54
55.33
51.33
47.01
42.72
38.66
34.88
31.36
28.14
25.34
23.20
21.94
21.59
21.90
22.39
22.41
21.48
19.46
16.59
13.33
10.21
7.48
5.09
2.76
0.15
-2.95
-6.55
-10.46
-14.46
-18.35
-22.02
-25.52
-28.99
-32.72
-37.04
-42.22
-48.26
-54.68
-60.38
-63.85
-63.51
-58.29
-48.05
-33.73
-17.03
0.02
15.68
28.80
38.84
45.73
49.61
50.71
49.36
46.00
41.22
35.62
29.78
24.11
18.88
14.21
10.19
6.83
4.21
2.34
1.17
0.51
0.02
-0.72
-2.15
-4.51
-7.80
-11.77
-16.04
-20.39
-24.77
-29.39
-34.57
-40.45
-46.96
-53.76
-60.37
-66.41
-71.72
-76.38
-80.62
-84.74
-89.03
-93.63
-98.41
-102.83
-105.92
-106.30
-102.59
-93.77
-79.70
-61.25
-40.11
-18.35
2.12
19.90
34.25
44.93
51.95
55.49
55.79
53.27
48.52
42.27
35.21
27.93
20.81
14.11
8.03
2.75
-1.58
-4.91
-7.34
-9.15
-10.77
-12.68
-15.35
-19.13
-24.11
-30.11
-36.64
-43.07
-48.77
-53.37
-56.84
-59.44
-61.51
-63.25
-64.57
-65.09
-64.28
-61.71
-57.14
-50.64
-42.49
-33.18
-23.22
-12.98
-2.47
8.83
21.91
37.85
57.38
80.27
105.21
130.07
152.50
170.61
183.37
190.64
192.87
190.74
184.92
176.02
164.61
151.31
136.81
121.82
107.05
93.19
80.87
70.59
62.70
57.35
54.51
53.95
55.25
57.87
61.24
64.83
68.31
71.52
74.50
77.31
79.90
82.01
83.19
82.83
80.41
75.60
68.32
58.77
47.30
34.29
20.01
4.50
-12.35
-30.71
-50.53
-71.34
-92.07
-111.04
-126.29
-135.96
-138.84
-134.82
-124.85
-110.79
-94.84
-78.94
-64.44
-52.02
-41.84
-33.79
-27.65
-23.14
-19.81
-17.12
-14.54
-11.71
-8.68
-5.73
-3.31
-1.72
-0.96
-0.73
-0.63
-0.30
0.39
1.28
2.09
2.53
2.43
1.83
0.90
-0.22
-1.53
-3.14
-5.27
-8.01
-11.28
-14.78
-18.05
-20.74
-22.70
-24.08
-25.23
-26.67
-28.91
-32.24
-36.67
-41.68
-46.31
-49.22
-49.06
-44.86
-36.47
-24.64
-10.92
2.89
15.18
24.99
32.07
36.62
39.04
39.60
38.47
35.80
31.88
27.16
22.20
17.50
13.39
9.98
7.27
5.24
3.84
3.03
2.66
2.51
2.33
1.92
1.19
0.18
-1.08
-2.63
-4.61
-7.14
-10.26
-13.84
-17.52
-20.85
-23.46
-25.22
-26.30
-27.18
-28.51
-30.96
-34.99
-40.60
-47.19
-53.58
-58.13
-59.22
-55.73
-47.43
-35.12
-20.35
-5.03
9.16
21.07
30.27
36.81
41.07
43.39
44.11
43.47
41.80
39.55
37.24
35.38
34.31
34.08
34.52
35.26
35.92
36.12
35.65
34.38
32.29
29.50
26.21
22.64
18.80
14.53
9.42
3.10
-4.55
-13.21
-22.17
-30.58
-37.79
-43.50
-47.84
-51.14
-53.78
-56.07
-58.28
-60.68
-63.39
-66.16
-68.16
-67.96
-64.00
-55.12
-41.18
-23.24
-3.25
16.47
34.00
48.14
58.54
65.41
69.28
70.69
70.14
68.02
64.67
60.44
55.63
50.49
45.22
40.00
34.94
30.25
26.10
22.61
19.79
17.44
15.20
12.69
9.59
5.80
1.50
-3.03
-7.50
-11.76
-15.86
-19.92
-24.12
-28.54
-33.12
-37.71
-42.05
-45.94
-49.17
-51.70
-53.66
-55.40
-57.45
-60.29
-64.07
-68.35
-72.02
-73.53
-71.39
-64.66
-53.34
-38.33
-21.16
-3.60
12.73
26.54
37.07
44.12
48.02
49.49
49.42
48.58
47.43
46.05
44.27
41.90
38.94
35.60
32.31
29.56
27.70
26.90
27.10
28.01
29.29
30.57
31.53
31.98
31.72
30.66
28.76
26.15
23.10
19.95
17.00
14.38
11.98
9.55
6.78
3.51
-0.27
-4.36
-8.44
-12.25
-15.66
-18.76
-21.81
-25.16
-29.12
-33.89
-39.51
-45.73
-52.01
-57.41
-60.70
-60.63
-56.38
-47.86
-35.88
-21.92
-7.74
5.16
15.75
23.65
28.86
31.62
32.28
31.20
28.81
25.57
21.96
18.38
15.07
12.09
9.40
6.96
4.78
3.00
1.83
1.42
1.80
2.82
4.14
5.41
6.30
6.64
6.39
5.64
4.55
3.27
1.91
0.47
-1.14
-3.06
-5.44
-8.37
-11.78
-15.47
-19.12
-22.41
-25.10
-27.15
-28.73
-30.17
-31.95
-34.51
-38.14
-42.71
-47.57
-51.52
-53.07
-50.90
-44.31
-33.49
-19.57
-4.16
10.92
24.26
34.92
42.48
46.97
48.68
48.08
45.80
42.47
38.69
34.85
31.19
27.74
24.53
21.56
18.98
16.92
15.55
14.92
14.93
15.35
15.80
15.93
15.39
13.94
11.44
7.96
3.74
-0.87
-5.41
-9.50
-12.94
-15.74
-18.18
-20.62
-23.38
-26.66
-30.41
-34.44
-38.46
-42.21
-45.54
-48.46
-51.10
-53.66
-56.44
-59.72
-63.72
-68.43
-73.42
-77.75
-80.10
-79.02
-73.38
-62.86
-48.07
-30.50
-12.04
5.46
20.64
32.79
41.76
47.75
51.11
52.25
51.58
49.53
46.61
43.33
40.18
37.47
35.32
33.65
32.32
31.19
30.24
29.58
29.25
29.18
29.15
28.89
28.13
26.79
24.93
22.63
19.86
16.53
12.52
7.92
3.04
-1.63
-5.76
-9.28
-12.50
-15.90
-19.88
-24.48
-29.39
-34.11
-38.19
-41.43
-43.88
-45.81
-47.58
-49.58
-52.15
-55.56
-59.83
-64.52
-68.68
-70.93
-69.82
-64.30
-54.15
-40.06
-23.45
-6.08
10.46
25.02
36.96
46.06
52.31
55.92
57.15
56.44
54.31
51.37
48.15
45.05
42.34
40.13
38.46
37.33
36.68
36.41
36.37
36.39
36.31
36.01
35.31
34.03
31.98
29.11
25.48
21.36
17.03
12.74
8.53
4.28
-0.23
-5.14
-10.48
-16.12
-21.84
-27.39
-32.55
-37.18
-41.23
-44.74
-47.85
-50.84
-53.99
-57.55
-61.56
-65.71
-69.41
-71.82
-72.11
-69.63
-64.10
-55.67
-44.81
-32.16
-18.45
-4.38
9.35
22.10
33.25
42.38
49.26
53.91
56.55
57.49
57.03
55.47
53.06
50.02
46.60
43.08
39.77
36.97
34.96
33.82
33.44
33.44
33.30
32.45
30.60
27.72
24.13
20.27
16.56
13.16
9.97
6.66
2.88
-1.63
-6.86
-12.54
-18.23
-23.47
-27.97
-31.71
-34.94
-38.16
-41.88
-46.51
-52.08
-58.09
-63.46
-66.70
-66.33
-61.29
-51.33
-37.14
-20.16
-2.15
15.15
30.48
43.08
52.69
59.42
63.58
65.54
65.67
64.34
61.86
58.55
54.76
50.82
47.06
43.73
40.96
38.82
37.29
36.35
35.92
35.87
35.99
36.02
35.71
34.90
33.53
31.63
29.28
26.60
23.69
20.65
17.56
14.47
11.37
8.19
4.80
1.10
-2.90
-7.04
-11.06
-14.65
-17.62
-20.01
-22.08
-24.25
-26.95
-30.44
-34.66
-39.30
-43.90
-48.04
-51.55
-54.48
-57.06
-59.62
-62.51
-66.06
-70.53
-75.93
-81.78
-86.88
-89.50
-87.70
-80.11
-66.45
-47.81
-26.32
-4.56
15.27
31.77
44.47
53.55
59.49
62.78
63.81
62.94
60.61
57.39
53.87
50.50
47.55
45.01
42.78
40.82
39.13
37.86
37.13
37.05
37.54
38.42
39.40
40.15
40.34
39.65
37.93
35.28
32.01
28.54
25.24
22.19
19.21
15.98
12.26
8.08
3.65
-0.70
-4.72
-8.34
-11.72
-15.04
-18.45
-21.99
-25.53
-28.99
-32.29
-35.46
-38.50
-41.39
-44.01
-46.21
-48.01
-49.62
-51.53
-54.22
-57.90
-62.16
-65.89
-67.47
-65.26
-58.23
-46.30
-30.50
-12.57
5.45
21.81
35.33
45.46
52.14
55.63
56.32
54.72
51.44
47.15
42.51
37.99
33.84
30.16
26.88
24.03
21.67
19.97
19.08
19.06
19.81
21.08
22.54
23.78
24.44
24.22
22.98
20.82
17.99
14.90
11.89
9.20
6.81
4.57
2.23
-0.41
-3.42
-6.74
-10.17
-13.50
-16.51
-19.11
-21.29
-23.20
-25.04
-27.06
-29.35
-31.90
-34.52
-37.00
-39.11
-40.78
-42.08
-43.31
-44.84
-47.04
-49.97
-53.17
-55.65
-56.06
-53.14
-46.21
-35.52
-22.19
-7.88
5.71
17.31
26.21
32.20
35.39
36.08
34.67
31.70
27.82
23.68
19.81
16.55
13.99
12.07
10.70
9.84
9.50
9.72
10.45
11.57
12.86
14.00
14.72
14.82
14.21
12.97
11.23
9.13
6.75
4.13
1.32
-1.55
-4.27
-6.64
-8.55
-10.12
-11.64
-13.45
-15.72
-18.41
-21.25
-23.85
-25.92
-27.41
-28.52
-29.59
-31.01
-33.02
-35.73
-39.09
-42.89
-46.75
-50.02
-51.82
-51.18
-47.30
-39.95
-29.65
-17.61
-5.44
5.39
13.90
19.82
23.42
25.19
25.61
24.98
23.43
21.10
18.18
14.96
11.72
8.73
6.19
4.18
2.75
1.89
1.62
1.91
2.67
3.76
4.92
5.84
6.27
6.05
5.22
3.98
2.64
1.49
0.65
0.08
-0.38
-0.95
-1.76
-2.78
-3.93
-5.04
-6.08
-7.13
-8.38
-10.04
-12.23
-14.87
-17.75
-20.57
-23.08
-25.18
-26.94
-28.60
-30.50
-32.96
-36.03
-39.37
-42.14
-43.16
-41.31
-35.90
-27.00
-15.51
-2.85
9.41
20.04
28.38
34.24
37.78
39.26
38.98
37.22
34.38
30.94
27.41
24.19
21.52
19.40
17.69
16.22
14.93
13.92
13.39
13.52
14.29
15.52
16.80
17.73
17.98
17.42
16.14
14.39
12.50
10.77
9.36
8.26
7.28
6.16
4.69
2.78
0.52
-1.88
-4.24
-6.41
-8.41
-10.31
-12.21
-14.18
-16.17
-18.16
-20.12
-22.07
-24.13
-26.47
-29.29
-32.68
-36.64
-40.94
-45.04
-48.13
-49.21
-47.32
-41.84
-32.72
-20.61
-6.87
6.85
19.00
28.52
34.99
38.62
39.89
39.31
37.35
34.35
30.70
26.79
23.06
19.87
17.38
15.58
14.39
13.73
13.60
13.92
14.63
15.55
16.50
17.30
17.82
18.01
17.86
17.40
16.67
15.79
14.83
13.85
12.80
11.53
9.85
7.63
4.89
1.81
-1.34
-4.30
-6.96
-9.39
-11.80
-14.42
-17.41
-20.73
-24.18
-27.45
-30.27
-32.57
-34.47
-36.30
-38.46
-41.30
-44.96
-49.24
-53.61
-57.17
-58.88
-57.72
-52.98
-44.54
-32.89
-19.10
-4.59
9.18
21.02
30.25
36.70
40.60
42.39
42.51
41.32
39.08
36.05
32.57
29.05
25.90
23.42
21.75
20.86
20.69
21.19
22.31
24.00
26.07
28.22
30.12
31.50
32.18
32.15
31.45
30.11
28.13
25.45
22.13
18.27
14.12
9.99
6.10
2.60
-0.49
-3.33
-6.10
-8.98
-12.07
-15.32
-18.58
-21.68
-24.57
-27.31
-30.13
-33.36
-37.30
-42.01
-47.18
-52.00
-55.28
-55.67
-52.09
-44.10
-32.14
-17.45
-1.73
13.32
26.36
36.59
43.72
47.75
48.93
47.63
44.38
39.90
35.04
30.57
27.11
24.91
23.86
23.64
23.82
24.11
24.42
24.79
25.31
26.01
26.72
27.22
27.26
26.66
25.34
23.34
20.77
17.78
14.51
11.08
7.54
3.94
0.36
-3.03
-6.01
-8.43
-10.27
-11.82
-13.52
-15.85
-19.07
-23.06
-27.38
-31.51
-35.06
-37.97
-40.52
-43.20
-46.52
-50.86
-56.27
-62.29
-67.94
-71.82
-72.37
-68.33
-59.18
-45.37
-28.24
-9.71
8.25
24.00
36.54
45.50
51.07
53.76
54.27
53.23
51.20
48.53
45.56
42.55
39.76
37.41
35.59
34.23
33.16
32.26
31.54
31.17
31.37
32.16
33.32
34.37
34.77
34.15
32.48
30.03
27.23
24.42
21.73
19.05
16.15
12.85
9.11
5.09
1.07
-2.71
-6.12
-9.20
-12.14
-15.14
-18.34
-21.76
-25.29
-28.77
-32.03
-34.93
-37.50
-39.89
-42.45
-45.61
-49.74
-54.94
-60.76
-66.20
-69.80
-70.05
-65.84
-56.89
-43.83
-28.10
-11.45
4.44
18.36
29.64
38.09
43.84
47.07
48.11
47.30
45.11
42.12
38.92
36.00
33.66
31.91
30.57
29.36
28.10
26.80
25.65
24.95
24.84
25.24
25.74
25.78
24.89
22.97
20.34
17.64
15.51
14.32
14.03
14.17
14.09
13.23
11.30
8.34
4.70
0.77
-3.06
-6.49
-9.41
-11.83
-13.89
-15.77
-17.72
-19.91
-22.52
-25.56
-28.91
-32.34
-35.57
-38.43
-40.97
-43.43
-46.27
-49.81
-54.00
-58.27
-61.44
-62.05
-58.79
-50.92
-38.62
-22.96
-5.66
11.37
26.44
38.46
46.97
52.08
54.21
53.90
51.69
48.07
43.56
38.75
34.23
30.54
28.02
26.69
26.29
26.42
26.75
27.06
27.31
27.53
27.71
27.67
27.23
26.19
24.50
22.29
19.74
17.05
14.30
11.45
8.40
5.05
1.42
-2.37
-6.07
-9.50
-12.48
-15.08
-17.41
-19.71
-22.15
-24.84
-27.78
-30.89
-34.07
-37.20
-40.21
-43.02
-45.69
-48.39
-51.45
-55.34
-60.32
-66.17
-71.99
-76.18
-76.90
-72.62
-62.78
-48.03
-29.99
-10.79
7.56
23.61
36.59
46.23
52.62
55.98
56.66
55.13
52.04
48.10
43.98
40.21
37.07
34.65
32.83
31.43
30.29
29.33
28.61
28.24
28.27
28.59
28.94
28.94
28.27
26.83
24.70
22.15
19.47
16.84
14.24
11.54
8.55
5.14
1.33
-2.73
-6.71
-10.30
-13.26
-15.54
-17.39
-19.20
-21.46
-24.50
-28.33
-32.66
-37.05
-41.07
-44.54
-47.54
-50.31
-53.17
-56.41
-60.29
-64.93
-70.18
-75.39
-79.32
-80.32
-76.87
-68.09
-54.20
-36.63
-17.49
0.98
17.08
29.93
39.42
45.83
49.59
51.08
50.62
48.61
45.57
42.03
38.46
35.14
32.20
29.67
27.66
26.37
26.01
26.68
28.22
30.28
32.35
33.93
34.66
34.39
33.17
31.23
28.91
26.49
24.15
21.90
19.55
16.93
13.90
10.53
7.02
3.62
0.55
-2.12
-4.45
-6.68
-9.05
-11.78
-14.97
-18.57
-22.34
-25.98
-29.19
-31.85
-34.11
-36.38
-39.19
-42.95
-47.68
-52.72
-56.78
-58.31
-55.90
-48.86
-37.48
-22.93
-6.82
9.16
23.67
35.82
45.11
51.37
54.62
55.13
53.31
49.71
44.96
39.64
34.31
29.41
25.25
21.97
19.55
17.81
16.61
15.86
15.60
15.85
16.52
17.28
17.70
17.37
16.17
14.25
11.97
9.67
7.50
5.35
3.01
0.26
-2.93
-6.44
-10.07
-13.62
-17.00
-20.23
-23.34
-26.37
-29.29
-32.09
-34.74
-37.26
-39.72
-42.25
-44.99
-48.11
-51.76
-56.02
-60.86
-65.95
-70.51
-73.44
-73.42
-69.33
-60.64
-47.65
-31.48
-13.77
3.71
19.49
32.61
42.61
49.43
53.33
54.65
53.84
51.39
47.80
43.59
39.21
35.08
31.47
28.51
26.21
24.49
23.25
22.45
22.11
22.21
22.63
23.12
23.34
22.99
21.91
20.18
17.98
15.54
12.98
10.25
7.23
3.80
-0.02
-4.03
-7.93
-11.49
-14.59
-17.35
-20.05
-22.97
-26.29
-29.97
-33.78
-37.38
-40.45
-42.85
-44.61
-45.98
-47.35
-49.24
-52.08
-56.05
-60.89
-65.70
-69.12
-69.50
-65.55
-56.68
-43.35
-26.92
-9.27
7.70
22.54
34.39
43.01
48.57
51.43
52.03
50.84
48.28
44.86
41.03
37.20
33.65
30.60
28.13
26.34
25.25
24.83
24.96
25.46
26.08
26.56
26.69
26.29
25.30
23.70
21.55
18.97
16.16
13.35
10.72
8.32
6.09
3.84
1.39
-1.42
-4.67
-8.32
-12.23
-16.17
-19.85
-23.04
-25.61
-27.61
-29.32
-31.22
-33.90
-37.82
-43.11
-49.27
-55.19
-59.22
-59.66
-55.28
-45.78
-31.99
-15.60
1.27
16.74
29.51
39.11
45.64
49.52
51.18
50.96
49.11
45.93
41.85
37.35
32.93
29.01
25.82
23.48
21.97
21.21
21.06
21.30
21.66
21.86
21.74
21.20
20.28
18.98
17.25
14.97
12.05
8.48
4.40
0.12
-4.10
-8.08
-11.83
-15.51
-19.23
-23.04
-26.81
-30.33
-33.41
-36.00
-38.19
-40.17
-42.16
-44.37
-47.02
-50.33
-54.57
-59.85
-65.91
-71.92
-76.48
-77.88
-74.62
-65.96
-52.25
-34.92
-16.10
2.03
17.78
30.25
39.33
45.39
49.02
50.75
51.02
50.16
48.48
46.24
43.64
40.88
38.08
35.38
32.89
30.76
29.10
28.00
27.49
27.52
27.90
28.33
28.37
27.65
25.91
23.17
19.69
15.85
12.03
8.44
5.09
1.90
-1.31
-4.63
-8.19
-12.01
-16.15
-20.65
-25.41
-30.25
-34.80
-38.71
-41.72
-43.74
-44.97
-45.84
-46.95
-48.86
-51.99
-56.29
-61.20
-65.56
-67.89
-66.70
-61.02
-50.71
-36.56
-20.10
-3.18
12.51
25.72
35.88
42.92
47.15
49.03
49.02
47.52
44.92
41.61
38.00
34.53
31.53
29.21
27.62
26.65
26.15
26.02
26.24
26.85
27.82
28.97
29.92
30.17
29.29
27.03
23.46
18.99
14.19
9.63
5.75
2.69
0.32
-1.75
-3.98
-6.79
-10.40
-14.72
-19.40
-23.94
-27.88
-31.00
-33.36
-35.33
-37.49
-40.44
-44.60
-49.97
-55.98
-61.45
-64.84
-64.61
-59.72
-50.00
-36.23
-19.98
-3.20
12.26
25.07
34.56
40.71
44.00
45.08
44.58
42.99
40.66
37.86
34.88
32.06
29.75
28.18
27.44
27.43
27.95
28.81
29.79
30.75
31.54
32.02
32.05
31.53
30.40
28.60
26.14
23.11
19.62
15.86
11.98
8.10
4.25
0.48
-3.20
-6.74
-10.11
-13.34
-16.54
-19.83
-23.30
-26.91
-30.53
-33.93
-37.02
-39.86
-42.74
-46.13
-50.52
-56.11
-62.58
-68.91
-73.50
-74.57
-70.69
-61.39
-47.29
-30.05
-11.75
5.64
20.72
32.80
41.82
48.03
51.82
53.59
53.70
52.50
50.36
47.69
44.83
42.09
39.70
37.77
36.28
35.13
34.21
33.49
32.99
32.75
32.64
32.38
31.52
29.74
26.94
23.36
19.46
15.68
12.25
9.00
5.68
2.00
-2.04
-6.21
-10.14
-13.59
-16.54
-19.21
-21.89
-24.83
-28.10
-31.55
-34.89
-37.81
-40.11
-41.74
-42.86
-43.84
-45.16
-47.28
-50.55
-54.88
-59.68
-63.81
-65.83
-64.34
-58.45
-48.05
-33.94
-17.61
-0.86
14.60
27.51
37.24
43.76
47.49
49.00
48.86
47.49
45.17
42.15
38.73
35.24
32.03
29.32
27.23
25.75
24.83
24.41
24.42
24.75
25.22
25.62
25.80
25.64
25.10
24.12
22.62
20.52
17.80
14.55
10.96
7.24
3.55
-0.01
-3.35
-6.48
-9.40
-12.11
-14.66
-17.08
-19.43
-21.77
-24.15
-26.65
-29.35
-32.33
-35.72
-39.63
-44.15
-49.25
-54.54
-59.14
-61.76
-60.97
-55.75
-45.92
-32.32
-16.64
-0.87
13.22
24.52
32.65
37.84
40.62
41.53
41.07
39.62
37.47
34.83
31.91
28.91
26.04
23.50
21.42
19.88
18.87
18.32
18.14
18.26
18.56
18.87
18.95
18.59
17.59
15.93
13.75
11.30
8.79
6.26
3.55
0.40
-3.35
-7.59
-11.93
-15.87
-19.02
-21.35
-23.14
-24.89
-26.96
-29.46
-32.20
-34.85
-37.19
-39.24
-41.23
-43.48
-46.31
-49.88
-54.24
-59.21
-64.27
-68.47
-70.51
-69.02
-63.06
-52.56
-38.42
-22.31
-6.17
8.37
20.32
29.38
35.69
39.65
41.67
42.19
41.56
40.11
38.06
35.53
32.58
29.33
26.01
23.00
20.72
19.43
19.17
19.71
20.64
21.52
22.01
21.90
21.11
19.67
17.71
15.42
13.03
10.75
8.69
6.77
4.78
2.50
-0.24
-3.38
-6.63
-9.68
-12.35
-14.71
-17.07
-19.80
-23.05
-26.71
-30.35
-33.47
-35.74
-37.19
-38.20
-39.41
-41.43
-44.65
-49.03
-53.97
-58.33
-60.65
-59.46
-53.77
-43.39
-29.11
-12.46
4.61
20.33
33.41
43.22
49.73
53.26
54.25
53.23
50.72
47.24
43.33
39.50
36.14
33.53
31.77
30.79
30.41
30.36
30.38
30.29
29.98
29.44
28.72
27.85
26.73
25.18
22.99
20.02
16.27
11.93
7.32
2.80
-1.41
-5.26
-8.91
-12.56
-16.45
-20.69
-25.25
-29.95
-34.59
-38.95
-42.90
-46.45
-49.72
-52.92
-56.40
-60.50
-65.41
-71.00
-76.59
-80.89
-82.30
-79.31
-71.12
-57.96
-41.14
-22.60
-4.41
11.82
25.26
35.67
43.30
48.51
51.63
52.96
52.80
51.51
49.45
46.96
44.32
41.71
39.30
37.26
35.71
34.75
34.39
34.50
34.84
35.11
35.04
34.40
33.08
31.01
28.24
24.89
21.14
17.19
13.21
9.27
5.37
1.52
-2.26
-5.85
-9.14
-12.17
-15.11
-18.24
-21.80
-25.79
-30.01
-34.06
-37.61
-40.56
-43.06
-45.52
-48.44
-52.27
-57.17
-62.93
-68.79
-73.49
-75.45
-73.17
-65.71
-53.14
-36.61
-18.08
0.19
16.29
29.14
38.53
44.89
48.91
51.20
52.13
51.92
50.72
48.81
46.45
43.88
41.21
38.53
36.01
33.95
32.69
32.40
32.98
33.99
34.88
35.19
34.70
33.45
31.55
29.11
26.15
22.67
18.73
14.55
10.39
6.49
3.00
-0.13
-3.05
-6.00
-9.16
-12.62
-16.33
-20.08
-23.65
-26.85
-29.61
-31.99
-34.13
-36.26
-38.65
-41.54
-45.11
-49.26
-53.47
-56.78
-57.84
-55.35
-48.45
-37.12
-22.34
-5.81
10.55
25.10
36.87
45.60
51.49
54.87
55.92
54.75
51.57
46.82
41.34
36.08
31.86
29.08
27.60
26.99
26.74
26.47
26.04
25.47
24.85
24.21
23.54
22.73
21.63
20.09
17.96
15.13
11.58
7.45
3.02
-1.35
-5.42
-9.12
-12.65
-16.33
-20.46
-25.10
-30.02
-34.76
-38.87
-42.05
-44.34
-46.04
-47.64
-49.70
-52.65
-56.65
-61.41
-66.06
-69.32
-69.67
-65.89
-57.49
-44.95
-29.62
-13.31
2.24
15.81
26.79
35.13
41.08
44.91
46.86
47.19
46.21
44.34
42.07
39.74
37.57
35.57
33.73
32.04
30.62
29.58
29.02
28.84
28.76
28.50
27.76
26.48
24.75
22.70
20.38
17.76
14.78
11.42
7.80
4.12
0.55
-2.80
-5.99
-9.22
-12.71
-16.67
-21.20
-26.20
-31.41
-36.43
-40.83
-44.28
-46.71
-48.36
-49.77
-51.61
-54.41
-58.35
-63.05
-67.56
-70.52
-70.49
-66.38
-57.82
-45.29
-30.04
-13.66
2.22
16.36
28.01
36.87
43.04
46.79
48.43
48.24
46.53
43.61
39.84
35.69
31.66
28.27
25.86
24.58
24.31
24.75
25.50
26.23
26.72
26.88
26.74
26.35
25.70
24.76
23.45
21.70
19.52
16.93
14.04
10.95
7.76
4.52
1.29
-1.91
-5.11
-8.34
-11.67
-15.17
-18.90
-22.78
-26.64
-30.27
-33.49
-36.27
-38.79
-41.43
-44.65
-48.84
-53.98
-59.54
-64.35
-66.88
-65.65
-59.73
-49.10
-34.66
-18.05
-1.09
14.63
28.03
38.58
46.17
50.92
53.09
53.01
51.06
47.72
43.48
38.86
34.36
30.42
27.34
25.23
24.00
23.41
23.17
22.97
22.57
21.84
20.72
19.25
17.45
15.41
13.14
10.66
7.98
5.09
2.02
-1.23
-4.71
-8.42
-12.34
-16.36
-20.33
-24.13
-27.71
-31.10
-34.37
-37.53
-40.50
-43.18
-45.50
-47.57
-49.70
-52.31
-55.85
-60.49
-65.97
-71.40
-75.34
-76.13
-72.36
-63.40
-49.65
-32.49
-13.87
4.23
20.30
33.45
43.47
50.55
55.05
57.39
57.96
57.14
55.29
52.79
49.96
47.10
44.41
42.07
40.15
38.68
37.65
37.07
36.88
36.96
37.11
37.01
36.36
34.99
32.94
30.41
27.68
24.94
22.23
19.41
16.39
13.21
10.03
7.08
4.44
1.98
-0.64
-3.73
-7.39
-11.47
-15.62
-19.56
-23.15
-26.48
-29.69
-32.89
-36.10
-39.39
-42.91
-46.96
-51.75
-57.11
-62.26
-65.85
-66.31
-62.39
-53.70
-40.88
-25.40
-9.15
6.16
19.32
29.74
37.39
42.49
45.39
46.40
45.84
43.99
41.21
37.91
34.51
31.40
28.83
26.94
25.68
24.99
24.75
24.93
25.48
26.33
27.28
28.02
28.18
27.44
25.68
22.95
19.49
15.62
11.65
7.84
4.31
1.04
-2.08
-5.25
-8.71
-12.59
-16.87
-21.38
-25.83
-29.93
-33.55
-36.71
-39.63
-42.60
-45.94
-49.93
-54.63
-59.81
-64.84
-68.65
-69.96
-67.53
-60.69
-49.55
-35.08
-18.87
-2.72
11.83
23.76
32.67
38.63
42.00
43.29
42.97
41.50
39.22
36.42
33.28
29.86
26.12
21.97
17.31
12.13
6.63
1.05
-4.33
-9.36
-14.15
-19.04
-24.50
-30.92
-38.46
-47.00
-56.15
-65.45
-74.46
-82.82
-90.23
-96.42
-101.18
-104.39
-106.04
-106.25
-105.22
-103.13
-100.09
-96.12
-91.23
-85.50
-79.07
-72.19
-65.19
-58.47
-52.51
-47.86
-45.00
-44.19
-45.31
-47.67
-50.03
-50.76
-48.25
-41.33
-29.68
-13.94
4.40
23.44
41.38
56.98
69.75
79.87
87.97
94.74
100.67
106.02
110.88
115.28
119.28
123.02
126.64
130.28
134.01
137.92
142.14
146.86
152.30
158.55
165.45
172.50
178.85
183.51
185.52
184.26
179.59
171.96
162.15
151.08
139.44
127.51
115.16
102.05
87.94
72.86
57.23
41.76
27.24
14.36
3.49
-5.34
-12.55
-18.90
-25.43
-33.15
-42.87
-54.82
-68.47
-82.53
-95.13
-104.32
-108.56
-107.14
-100.37
-89.44
-76.11
-62.27
-49.55
-39.08
-31.42
-26.63
-24.42
-24.38
-26.00
-28.84
-32.45
-36.39
-40.19
-43.45
-45.86
-47.28
-47.80
-47.58
-46.84
-45.73
-44.31
-42.58
-40.60
-38.49
-36.43
-34.62
-33.18
-32.11
-31.31
-30.65
-30.03
-29.50
-29.23
-29.43
-30.24
-31.70
-33.61
-35.68
-37.61
-39.20
-40.43
-41.48
-42.74
-44.69
-47.82
-52.42
-58.38
-64.96
-70.84
-74.28
-73.62
-67.73
-56.47
-40.69
-22.08
-2.68
15.66
31.61
44.52
54.36
61.44
66.18
68.93
69.94
69.41
67.61
64.88
61.63
58.27
55.11
52.32
49.96
47.99
46.30
44.75
43.20
41.55
39.78
37.91
35.92
33.68
30.95
27.48
23.10
17.87
11.99
5.73
-0.66
-7.13
-13.69
-20.36
-27.08
-33.71
-39.96
-45.65
-50.68
-55.10
-59.10
-62.88
-66.67
-70.63
-74.96
-79.74
-84.82
-89.63
-93.07
-93.65
-89.80
-80.45
-65.49
-45.90
-23.57
-0.79
20.39
38.60
53.22
64.37
72.47
78.03
81.44
82.92
82.59
80.65
77.39
73.22
68.64
64.05
59.68
55.67
52.05
48.87
46.24
44.30
43.13
42.63
42.54
42.44
41.82
40.26
37.48
33.45
28.38
22.58
16.41
10.10
3.73
-2.72
-9.27
-15.85
-22.25
-28.17
-33.42
-37.91
-41.73
-45.03
-48.05
-50.98
-54.08
-57.64
-61.97
-67.37
-73.86
-81.07
-88.01
-93.19
-94.83
-91.36
-81.89
-66.62
-46.84
-24.68
-2.54
17.49
34.00
46.40
54.75
59.53
61.33
60.78
58.54
55.27
51.68
48.41
45.92
44.32
43.40
42.68
41.69
40.14
38.04
35.69
33.47
31.66
30.23
28.87
27.09
24.49
20.88
16.44
11.60
6.86
2.61
-1.03
-4.21
-7.25
-10.51
-14.23
-18.47
-23.05
-27.60
-31.65
-34.87
-37.18
-38.84
-40.43
-42.70
-46.29
-51.49
-58.02
-64.91
-70.62
-73.33
-71.37
-63.81
-50.76
-33.41
-13.68
6.32
24.80
40.64
53.29
62.64
68.74
71.72
71.85
69.58
65.63
60.82
55.90
51.41
47.61
44.62
42.44
41.09
40.55
40.72
41.37
42.14
42.58
42.25
40.80
38.01
33.79
28.17
21.34
13.64
5.60
-2.15
-9.00
-14.62
-19.06
-22.78
-26.57
-31.08
-36.60
-42.90
-49.30
-54.99
-59.40
-62.37
-64.14
-65.18
-65.98
-66.93
-68.32
-70.35
-72.95
-75.65
-77.40
-76.80
-72.41
-63.42
-50.04
-33.56
-15.97
0.80
15.40
27.26
36.42
43.10
47.41
49.22
48.47
45.37
40.58
35.05
29.74
25.38
22.30
20.53
19.94
20.34
21.53
23.27
25.22
26.93
27.95
27.86
26.38
23.44
19.19
14.04
8.66
3.77
-0.03
-2.48
-3.82
-4.64
-5.71
-7.56
-10.34
-13.81
-17.47
-20.84
-23.69
-26.08
-28.33
-30.81
-33.86
-37.71
-42.37
-47.62
-52.84
-57.06
-59.03
-57.56
-51.85
-41.88
-28.49
-13.12
2.56
17.11
29.67
39.89
47.86
53.83
58.00
60.46
61.27
60.52
58.38
55.22
51.50
47.72
44.25
41.25
38.61
36.06
33.38
30.61
28.10
26.37
25.79
26.36
27.52
28.39
28.03
25.84
21.66
15.83
8.94
1.63
-5.54
-12.24
-18.24
-23.49
-27.98
-31.79
-35.01
-37.76
-40.22
-42.56
-45.00
-47.72
-50.88
-54.59
-58.87
-63.63
-68.55
-73.03
-76.14
-76.75
-73.78
-66.56
-55.12
-40.27
-23.45
-6.42
9.12
21.93
31.39
37.53
40.90
42.28
42.43
41.94
41.14
40.11
38.82
37.17
35.07
32.47
29.45
26.24
23.31
21.18
20.29
20.78
22.34
24.27
25.75
26.02
24.69
21.71
17.29
11.76
5.50
-1.11
-7.73
-14.08
-20.02
-25.54
-30.78
-35.87
-40.86
-45.73
-50.40
-54.85
-59.24
-63.83
-68.87
-74.52
-80.60
-86.56
-91.41
-93.91
-92.82
-87.20
-76.73
-61.89
-43.90
-24.49
-5.49
11.53
25.49
35.94
43.01
47.16
49.03
49.24
48.25
46.44
44.16
41.75
39.52
37.64
36.08
34.58
32.84
30.72
28.36
26.11
24.44
23.58
23.47
23.73
23.88
23.56
22.61
21.09
19.17
16.89
14.21
11.00
7.22
2.99
-1.37
-5.45
-8.87
-11.52
-13.57
-15.49
-18.02
-22.01
-28.13
-36.61
-46.93
-57.67
-66.69
-71.57
-70.37
-62.32
-48.15
-29.94
-10.47
7.58
22.36
33.09
39.92
43.57
44.85
44.45
42.93
40.76
38.36
36.14
34.36
33.10
32.18
31.30
30.11
28.43
26.36
24.25
22.63
21.91
22.18
23.11
24.00
24.12
22.94
20.36
16.72
12.55
8.36
4.39
0.61
-3.23
-7.40
-12.01
-17.01
-22.09
-26.87
-30.95
-34.08
-36.22
-37.59
-38.67
-40.11
-42.56
-46.45
-51.75
-57.67
-62.81
-65.36
-63.68
-56.84
-45.00
-29.36
-11.89
5.33
20.55
32.72
41.45
46.94
49.65
50.07
48.58
45.44
40.89
35.26
29.14
23.33
18.68
15.82
15.00
16.04
18.43
21.56
24.95
28.30
31.40
34.11
36.24
37.62
38.13
37.82
36.82
35.33
33.47
31.28
28.66
25.46
21.52
16.79
11.33
5.28
-1.14
-7.67
-14.08
-20.18
-25.82
-30.95
-35.56
-39.70
-43.47
-47.03
-50.67
-54.67
-59.19
-64.01
-68.37
-71.04
-70.62
-66.04
-56.97
-44.03
-28.65
-12.61
2.41
15.19
25.05
31.85
35.76
37.17
36.63
34.77
32.27
29.81
27.94
27.04
27.24
28.44
30.38
32.71
35.08
37.25
39.09
40.56
41.63
42.17
41.99
40.79
38.33
34.46
29.33
23.32
17.00
10.99
5.70
1.30
-2.40
-5.73
-9.04
-12.55
-16.26
-20.10
-23.94
-27.71
-31.37
-34.96
-38.49
-42.08
-45.91
-50.26
-55.35
-61.13
-67.08
-72.15
-74.92
-74.08
-68.81
-59.16
-46.09
-31.18
-16.14
-2.46
9.00
17.88
24.20
28.14
29.91
29.79
28.19
25.67
22.96
20.76
19.55
19.48
20.39
21.92
23.68
25.43
27.06
28.56
29.89
30.87
31.25
30.76
29.27
26.82
23.67
20.09
16.31
12.37
8.10
3.30
-2.13
-8.07
-14.15
-19.96
-25.16
-29.68
-33.68
-37.50
-41.45
-45.72
-50.23
-54.57
-57.96
-59.38
-57.77
-52.42
-43.19
-30.68
-16.11
-1.00
13.21
25.44
35.09
41.96
46.13
47.86
47.51
45.56
42.54
38.99
35.39
32.09
29.33
27.17
25.61
24.58
24.00
23.81
23.90
24.04
23.92
23.17
21.44
18.54
14.50
9.52
4.01
-1.47
-6.35
-10.18
-12.79
-14.36
-15.40
-16.56
-18.35
-20.91
-23.98
-27.04
-29.64
-31.61
-33.15
-34.74
-36.91
-40.04
-44.25
-49.24
-54.27
-58.19
-59.67
-57.48
-50.90
-39.99
-25.73
-9.69
6.33
20.74
32.55
41.41
47.47
51.15
52.90
53.05
51.80
49.29
45.78
41.73
37.74
34.38
31.96
30.41
29.34
28.26
26.80
24.88
22.67
20.44
18.36
16.42
14.46
12.30
9.80
6.88
3.54
-0.15
-4.17
-8.36
-12.53
-16.42
-19.81
-22.62
-24.93
-26.95
-28.91
-30.96
-33.09
-35.15
-36.97
-38.49
-39.80
-41.11
-42.68
-44.72
-47.31
-50.32
-53.33
-55.62
-56.16
-53.84
-47.78
-37.68
-24.00
-7.98
8.71
24.37
37.73
48.09
55.27
59.39
60.67
59.38
55.84
50.64
44.59
38.64
33.70
30.34
28.69
28.47
29.15
30.15
31.07
31.65
31.79
31.45
30.63
29.32
27.55
25.36
22.85
20.10
17.19
14.18
11.11
8.02
4.93
1.79
-1.52
-5.09
-9.04
-13.37
-18.03
-22.84
-27.60
-32.07
-36.06
-39.54
-42.62
-45.66
-49.12
-53.41
-58.58
-64.12
-68.93
-71.46
-70.20
-64.19
-53.37
-38.70
-21.89
-4.93
10.43
23.04
32.43
38.68
42.17
43.33
42.56
40.24
36.81
32.76
28.58
24.70
21.38
18.73
16.79
15.55
14.97
14.97
15.41
16.04
16.62
16.97
16.99
16.65
15.90
14.64
12.81
10.35
7.41
4.24
1.20
-1.46
-3.66
-5.57
-7.53
-9.87
-12.80
-16.29
-20.08
-23.81
-27.15
-29.96
-32.33
-34.52
-36.90
-39.82
-43.62
-48.50
-54.43
-60.95
-67.16
-71.71
-73.14
-70.25
-62.57
-50.50
-35.34
-18.82
-2.69
11.74
23.76
33.17
40.08
44.66
47.03
47.28
45.68
42.70
39.03
35.46
32.60
30.78
29.94
29.81
30.05
30.37
30.65
30.81
30.72
30.16
28.83
26.47
23.00
18.59
13.67
8.75
4.27
0.38
-3.09
-6.57
-10.50
-15.12
-20.36
-25.86
-31.12
-35.69
-39.37
-42.27
-44.73
-47.25
-50.33
-54.35
-59.38
-65.01
-70.25
-73.72
-73.90
-69.65
-60.55
-47.18
-30.96
-13.76
2.59
16.73
27.97
36.26
41.90
45.37
47.13
47.53
46.89
45.53
43.78
41.91
40.18
38.70
37.50
36.54
35.76
35.13
34.63
34.30
34.20
34.36
34.71
35.06
35.12
34.58
33.15
30.71
27.34
23.27
18.83
14.39
10.17
6.29
2.63
-1.01
-4.84
-8.96
-13.28
-17.59
-21.65
-25.38
-28.85
-32.36
-36.22
-40.76
-46.18
-52.42
-59.07
-65.25
-69.62
-70.60
-66.87
-57.78
-43.72
-26.08
-6.89
11.76
28.23
41.63
51.73
58.75
63.02
64.87
64.60
62.57
59.33
55.57
51.95
48.97
46.82
45.39
44.40
43.56
42.74
41.95
41.26
40.70
40.15
39.40
38.24
36.52
34.22
31.42
28.23
24.74
21.01
17.08
13.01
8.82
4.54
0.17
-4.32
-8.89
-13.46
-17.89
-22.07
-25.94
-29.55
-32.98
-36.34
-39.72
-43.17
-46.78
-50.68
-54.91
-59.29
-63.26
-65.89
-66.05
-62.78
-55.63
-44.91
-31.56
-16.97
-2.60
10.31
20.94
28.93
34.30
37.29
38.28
37.66
35.81
33.04
29.72
26.32
23.39
21.44
20.82
21.50
23.18
25.32
27.40
29.10
30.40
31.43
32.33
33.05
33.34
32.85
31.32
28.71
25.30
21.49
17.68
14.01
10.46
6.83
2.96
-1.20
-5.54
-9.88
-14.03
-17.87
-21.41
-24.74
-27.99
-31.34
-34.98
-39.09
-43.73
-48.75
-53.66
-57.62
-59.58
-58.55
-53.90
-45.64
-34.43
-21.37
-7.78
5.21
16.68
26.08
33.08
37.57
39.54
39.18
36.80
32.88
27.97
22.64
17.42
12.75
8.90
6.01
4.03
2.79
2.06
1.62
1.30
0.94
0.35
-0.62
-2.17
-4.39
-7.26
-10.59
-14.08
-17.45
-20.58
-23.56
-26.58
-29.79
-33.16
-36.43
-39.25
-41.29
-42.47
-42.90
-42.91
-42.88
-43.16
-44.04
-45.59
-47.60
-49.41
-49.99
-48.17
-43.02
-34.25
-22.45
-8.92
4.73
17.01
27.01
34.46
39.57
42.68
44.08
43.84
41.94
38.49
33.86
28.70
23.76
19.66
16.68
14.71
13.36
12.22
10.97
9.53
7.97
6.42
4.95
3.55
2.14
0.63
-1.05
-2.91
-4.85
-6.69
-8.27
-9.52
-10.53
-11.52
-12.79
-14.52
-16.71
-19.16
-21.60
-23.83
-25.79
-27.65
-29.65
-32.05
-35.11
-38.99
-43.75
-49.16
-54.70
-59.41
-62.12
-61.65
-57.21
-48.64
-36.53
-22.04
-6.58
8.53
22.23
33.83
42.95
49.41
53.24
54.62
53.88
51.48
47.95
43.84
39.64
35.80
32.61
30.28
28.77
27.95
27.56
27.36
27.21
27.05
26.80
26.33
25.45
23.95
21.69
18.63
14.83
10.45
5.66
0.62
-4.55
-9.76
-14.96
-20.14
-25.33
-30.61
-36.08
-41.82
-47.88
-54.17
-60.47
-66.51
-72.09
-77.22
-82.25
-87.81
-94.64
-103.18
-113.22
-123.68
-132.78
-138.49
-139.25
-134.52
-125.04
-112.50
-99.02
-86.44
-75.85
-67.56
-61.27
-56.43
-52.40
-48.52
-44.08
-38.33
-30.66
-20.80
-8.89
4.65
19.39
35.19
52.17
70.50
90.05
110.10
129.33
146.16
159.22
167.64
171.16
170.04
164.74
155.83
143.92
129.72
114.08
97.84
81.54
65.33
48.96
32.15
15.03
-1.65
-16.44
-27.76
-34.36
-35.89
-32.96
-26.91
-19.33
-11.52
-4.36
1.82
6.95
11.01
13.88
15.27
14.94
12.88
9.72
6.69
5.53
7.91
14.83
26.15
40.54
55.88
69.92
81.00
88.27
91.83
92.31
90.49
87.15
82.91
78.28
73.83
70.14
67.72
66.96
67.99
70.61
74.39
78.69
82.81
86.18
88.39
89.19
88.55
86.47
83.02
78.34
72.58
65.97
58.77
51.21
43.44
35.52
27.40
18.94
10.02
0.49
-9.76
-20.90
-33.10
-46.57
-61.43
-77.61
-94.73
-112.11
-128.91
-144.35
-157.93
-169.58
-179.58
-188.30
-195.92
-202.09
-205.86
-205.90
-200.81
-189.68
-172.45
-150.08
-124.32
-97.35
-71.36
-48.16
-28.96
-14.35
-4.28
1.80
4.72
5.44
4.80
3.51
2.09
0.95
0.47
0.94
2.57
5.37
9.19
13.79
18.99
24.70
31.00
38.02
45.90
54.71
64.34
74.51
84.80
94.66
103.53
110.84
116.15
119.11
119.57
117.54
113.20
106.79
98.60
88.83
77.68
65.30
51.89
37.65
22.83
7.58
-7.92
-23.56
-39.15
-54.48
-69.30
-83.36
-96.37
-107.91
-117.33
-123.74
-126.10
-123.54
-115.56
-102.36
-84.82
-64.34
-42.57
-21.07
-1.12
16.39
30.95
42.33
50.49
55.52
57.61
57.08
54.41
50.24
45.29
40.25
35.69
31.90
28.96
26.80
25.36
24.62
24.59
25.23
26.31
27.39
28.00
27.76
26.56
24.57
22.09
19.42
16.69
13.82
10.61
6.90
2.67
-1.96
-6.75
-11.43
-15.75
-19.60
-22.95
-25.86
-28.58
-31.48
-35.01
-39.51
-44.93
-50.60
-55.27
-57.39
-55.61
-49.29
-38.66
-24.78
-9.10
6.87
21.90
34.99
45.37
52.28
55.14
53.63
47.89
38.61
26.90
14.08
1.38
-10.26
-20.32
-28.52
-34.69
-38.63
-40.04
-38.76
-35.00
-29.45
-23.20
-17.35
-12.65
-9.25
-6.75
-4.44
-1.76
1.47
5.08
8.73
12.20
15.45
18.58
21.67
24.73
27.78
30.72
33.51
36.09
38.40
40.31
41.63
42.14
41.73
40.60
39.08
37.83
37.89
40.58
46.92
57.17
70.43
84.84
98.39
108.84
114.67
115.62
112.67
107.39
101.15
94.72
88.15
81.69
74.73
66.59
57.08
46.77
36.50
26.80
17.72
8.90
0.71
-7.57
-17.02
-28.54
-42.51
-59.09
-78.61
-101.46
-128.24
-154.37
-174.41
-185.46
-189.32
-189.82
-189.11
-186.71
-180.68
-174.29
-164.82
-151.49
-135.23
-117.55
-99.58
-82.27
-66.71
-51.82
-38.55
-26.74
-16.86
-8.85
-1.82
5.92
16.03
29.35
45.65
63.48
81.92
99.09
113.03
122.09
125.20
121.84
112.09
96.72
77.15
56.17
36.32
19.63
7.24
-0.52
-4.04
-4.06
-1.35
3.31
9.69
17.42
26.04
34.95
43.48
50.90
56.52
59.76
60.17
57.77
52.77
45.57
36.76
26.91
16.62
6.47
-3.15
-12.09
-20.52
-28.82
-37.46
-46.80
-56.93
-67.75
-79.09
-90.78
-102.59
-114.03
-124.19
-131.74
-135.28
-133.77
-126.97
-115.60
-100.99
-84.70
-68.03
-51.83
-36.51
-22.35
-9.58
1.49
10.61
17.73
23.10
27.19
30.67
34.19
38.31
43.35
49.37
56.18
63.40
70.55
77.06
82.36
85.92
87.26
85.97
81.78
74.68
64.90
53.00
39.76
26.02
12.52
-0.11
-11.42
-21.10
-28.82
-34.37
-37.51
-38.04
-35.96
-31.56
-25.39
-18.20
-10.68
-3.25
4.01
11.62
20.61
32.12
47.03
65.53
87.01
110.07
132.89
153.39
169.86
181.22
187.05
187.32
182.46
173.25
160.81
146.32
130.28
113.00
94.66
75.13
53.85
30.19
3.85
-24.84
-54.91
-86.05
-117.20
-146.70
-173.01
-195.49
-214.46
-230.54
-244.23
-255.73
-266.47
-276.63
-284.93
-289.66
-290.02
-286.66
-280.78
-273.60
-265.86
-259.41
-253.69
-245.74
-231.73
-209.70
-180.55
-146.96
-112.33
-66.34
-8.58
53.02
108.57
153.72
189.21
216.43
235.93
247.22
249.77
241.60
222.81
195.93
165.50
137.72
115.52
102.08
99.44
106.97
119.40
130.43
133.41
125.56
108.37
85.79
62.81
42.89
27.29
14.48
3.20
-6.44
-13.09
-15.85
-15.31
-12.86
-10.23
-8.85
-9.74
-12.62
-16.26
-18.91
-19.54
-18.32
-16.01
-13.67
-12.14
-11.96
-12.98
-14.60
-15.93
-16.43
-16.07
-15.10
-13.93
-12.93
-12.32
-12.18
-12.51
-13.18
-14.06
-14.95
-15.69
-16.10
-16.13
-15.89
-15.67
-15.89
-16.76
-18.31
-20.18
-21.88
-22.85
-22.61
-20.70
-16.73
-10.52
-2.44
6.17
13.62
17.90
17.75
13.34
6.37
-0.66
-5.49
-7.06
-5.69
-2.58
0.95
4.13
6.87
9.34
11.51
13.06
13.53
12.74
11.03
9.09
7.62
7.10
7.44
8.09
8.32
7.49
5.29
2.04
-1.50
-4.19
-5.00
-3.38
0.34
5.14
9.69
13.02
15.01
16.42
18.34
21.56
26.02
30.74
34.36
35.78
34.65
31.49
27.23
22.74
18.42
14.07
9.34
4.06
-1.45
-6.41
-9.98
-11.64
-11.49
-10.12
-8.23
-6.23
-3.93
-0.77
3.85
10.21
18.00
26.46
34.72
42.14
48.55
54.20
59.50
64.76
70.02
75.00
79.27
82.36
83.94
83.97
82.62
80.41
78.07
76.48
76.40
78.15
81.38
85.12
88.05
89.00
87.20
82.28
74.11
62.56
47.61
29.51
9.00
-12.61
-33.93
-53.81
-71.77
-87.92
-102.59
-115.91
-127.61
-137.07
-143.75
-147.36
-147.93
-145.62
-140.53
-132.73
-122.44
-110.28
-97.34
-84.99
-74.62
-67.21
-63.21
-62.53
-64.71
-69.15
-75.20
-82.14
-89.28
-95.87
-101.15
-104.62
-106.13
-106.07
-105.28
-104.76
-105.20
-106.60
-108.11
-108.28
-105.67
-99.37
-89.37
-76.32
-61.12
-44.42
-26.51
-7.58
11.85
30.79
47.89
62.04
72.72
80.18
85.09
88.08
89.31
88.60
85.74
80.93
74.99
69.05
64.13
60.74
58.81
58.01
58.01
58.57
59.54
60.56
61.06
60.37
57.96
53.70
47.87
41.10
34.10
27.52
21.81
17.29
14.17
12.54
12.30
13.13
14.45
15.51
15.50
13.86
10.39
5.49
0.18
-4.16
-6.13
-4.79
0.08
7.89
17.46
27.34
36.29
43.48
48.64
51.98
53.96
55.09
55.76
56.14
56.21
55.81
54.70
52.67
49.62
45.55
40.62
35.17
29.65
24.58
20.44
17.47
15.58
14.39
13.31
11.84
9.74
7.08
4.16
1.23
-1.63
-4.59
-7.99
-12.16
-17.18
-22.86
-28.74
-34.23
-38.75
-41.92
-43.73
-44.59
-45.25
-46.60
-49.21
-53.05
-57.36
-60.85
-62.17
-60.42
-55.40
-47.64
-38.08
-27.76
-17.55
-8.03
0.32
7.20
12.35
15.68
17.34
17.62
16.92
15.56
13.71
11.41
8.65
5.49
2.10
-1.28
-4.43
-7.23
-9.71
-11.93
-13.98
-15.91
-17.69
-19.24
-20.39
-20.96
-20.72
-19.51
-17.40
-14.76
-12.21
-10.43
-9.92
-10.80
-12.81
-15.49
-18.41
-21.34
-24.39
-27.86
-32.08
-37.28
-43.43
-50.14
-56.65
-61.90
-64.74
-64.21
-59.87
-51.96
-41.41
-29.51
-17.54
-6.42
3.36
11.66
18.54
24.06
28.25
31.09
32.59
32.87
32.25
31.15
30.16
29.78
30.41
32.14
34.69
37.46
39.71
40.87
40.69
39.35
37.23
34.94
32.85
30.91
28.68
25.62
21.50
16.49
11.11
5.92
1.52
-1.94
-4.86
-7.99
-11.91
-16.69
-21.85
-26.76
-31.10
-34.62
-37.68
-41.21
-46.25
-53.21
-61.30
-68.63
-72.84
-71.64
-62.80
-45.05
-18.79
13.47
47.50
78.44
102.04
115.96
116.79
104.71
84.32
62.86
46.21
36.11
30.93
28.18
26.33
25.03
24.91
26.06
27.52
27.62
25.20
20.38
14.50
9.37
6.22
5.69
7.22
9.42
10.55
9.57
6.64
3.00
0.11
-0.98
0.06
2.61
5.42
6.95
5.89
1.61
-5.70
-14.84
-23.74
-29.58
-30.36
-25.39
-15.97
-5.13
3.52
7.30
5.45
-0.69
-8.44
-15.10
-18.83
-19.19
-16.73
-12.34
-6.83
-0.79
5.27
10.67
14.64
16.55
16.02
13.27
9.01
4.27
0.04
-3.05
-4.95
-6.01
-6.83
-7.86
-9.26
-10.85
-12.27
-13.15
-13.36
-13.02
-12.27
-11.43
-10.81
-10.54
-10.56
-10.75
-10.93
-10.99
-10.90
-10.74
-10.70
-10.98
-11.84
-13.52
-16.13
-19.64
-23.74
-27.90
-31.47
-33.98
-35.27
-35.56
-35.37
-35.25
-35.57
-36.38
-37.45
-38.43
-39.04
-39.15
-38.76
-38.06
-37.29
-36.81
-36.91
-37.72
-38.98
-40.07
-40.06
-38.05
-33.48
-26.30
-16.99
-6.37
4.60
15.03
24.16
31.50
36.71
39.73
40.72
40.03
38.21
35.84
33.53
31.72
30.69
30.56
31.21
32.34
33.61
34.68
35.30
35.37
34.90
33.90
32.40
30.34
27.71
24.50
20.86
16.99
13.14
9.52
6.28
3.48
1.04
-1.20
-3.48
-6.07
-9.14
-12.71
-16.59
-20.40
-23.76
-26.41
-28.23
-29.29
-29.73
-29.76
-29.68
-29.90
-30.85
-32.84
-35.81
-39.20
-42.06
-43.31
-42.09
-38.08
-31.56
-23.22
-13.84
-4.06
5.71
15.14
23.82
31.20
36.74
40.05
41.16
40.52
38.84
36.87
35.17
34.03
33.50
33.52
34.01
34.87
36.05
37.43
38.89
40.22
41.18
41.45
40.77
39.05
36.39
33.15
29.78
26.67
23.97
21.56
19.18
16.62
13.82
10.86
7.93
5.14
2.56
0.18
-2.01
-3.94
-5.57
-6.91
-8.12
-9.52
-11.56
-14.57
-18.64
-23.47
-28.35
-32.27
-34.22
-33.41
-29.54
-22.88
-14.17
-4.38
5.43
14.38
21.79
27.20
30.41
31.43
30.51
28.01
24.41
20.17
15.78
11.70
8.37
6.14
5.15
5.34
6.46
8.13
9.99
11.71
13.02
13.72
13.74
13.11
12.04
10.80
9.66
8.65
7.63
6.25
4.21
1.33
-2.31
-6.39
-10.47
-14.04
-16.77
-18.60
-19.81
-20.88
-22.36
-24.68
-27.89
-31.77
-35.75
-39.07
-40.92
-40.52
-37.34
-31.26
-22.68
-12.46
-1.73
8.41
17.17
24.22
29.63
33.60
36.32
37.76
37.85
36.52
33.85
30.14
25.92
21.74
18.12
15.40
13.72
13.00
13.02
13.49
14.09
14.54
14.69
14.40
13.61
12.30
10.47
8.14
5.41
2.39
-0.82
-4.14
-7.53
-10.97
-14.39
-17.73
-20.87
-23.73
-26.36
-28.90
-31.51
-34.21
-36.74
-38.49
-38.63
-36.40
-31.41
-23.87
-14.53
-4.50
5.10
13.45
20.09
24.88
27.77
28.72
27.70
24.75
20.16
14.48
8.48
2.98
-1.35
-4.15
-5.45
-5.57
-4.95
-3.98
-2.93
-1.91
-0.94
-0.03
0.69
0.99
0.66
-0.49
-2.46
-5.11
-8.16
-11.30
-14.30
-17.05
-19.67
-22.38
-25.43
-28.98
-32.96
-37.12
-40.96
-43.84
-45.02
-43.80
-39.65
-32.41
-22.41
-10.50
2.22
14.55
25.58
34.75
41.83
46.80
49.71
50.66
49.88
47.82
45.04
42.15
39.60
37.55
35.92
34.52
33.14
31.69
30.16
28.51
26.68
24.60
22.19
19.45
16.38
12.98
9.25
5.20
0.93
-3.38
-7.53
-11.37
-14.96
-18.51
-22.36
-26.74
-31.76
-37.31
-43.03
-48.33
-52.47
-54.63
-54.10
-50.49
-43.91
-34.95
-24.60
-13.92
-3.76
5.34
13.11
19.42
24.08
26.87
27.63
26.43
23.69
20.19
16.74
14.01
12.16
10.90
9.68
8.02
5.84
3.45
1.48
0.47
0.62
1.66
2.97
3.87
3.78
2.37
-0.38
-4.26
-8.83
-13.57
-18.00
-21.88
-25.28
-28.60
-32.34
-36.96
-42.51
-48.56
-54.18
-58.14
-59.26
-56.69
-50.26
-40.43
-28.30
-15.19
-2.39
9.17
18.97
26.93
33.24
38.14
41.89
44.57
46.13
46.45
45.43
43.16
39.95
36.29
32.77
29.88
27.92
26.95
26.84
27.24
27.72
27.69
26.54
23.87
19.64
14.25
8.49
3.20
-1.07
-4.34
-7.13
-10.19
-14.00
-18.47
-22.92
-26.45
-28.39
-28.76
-28.23
-27.98
-29.13
-32.34
-37.53
-43.80
-49.74
-53.85
-54.90
-52.26
-46.01
-36.81
-25.64
-13.58
-1.49
9.99
20.43
29.55
37.17
43.15
47.43
50.00
50.95
50.50
49.05
47.09
45.22
43.84
43.10
42.79
42.42
41.41
39.30
35.96
31.57
26.58
21.57
17.10
13.60
11.27
10.02
9.48
9.04
8.02
5.83
2.11
-3.20
-9.81
-17.20
-24.70
-31.68
-37.65
-42.36
-45.77
-48.00
-49.22
-49.59
-49.39
-49.05
-49.19
-50.48
-53.31
-57.40
-61.70
-64.50
-63.96
-58.77
-48.65
-34.52
-18.17
-1.70
13.14
25.38
34.95
42.42
48.82
55.19
62.27
70.22
78.28
84.87
87.94
85.61
77.02
62.80
45.06
26.87
11.37
0.79
-4.13
-4.17
-1.26
2.30
4.61
4.65
2.41
-1.35
-5.58
-9.32
-11.90
-13.06
-12.84
-11.59
-10.00
-9.07
-9.87
-13.21
-19.19
-27.05
-35.36
-42.50
-47.29
-49.47
-49.66
-49.09
-49.10
-50.57
-53.71
-58.04
-62.59
-66.17
-67.60
-65.96
-60.70
-51.74
-39.54
-25.05
-9.58
5.45
18.84
29.81
38.14
44.08
48.12
50.73
52.16
52.41
51.38
49.09
45.83
42.11
38.46
35.29
32.67
30.50
28.58
26.80
25.12
23.53
21.93
20.06
17.69
14.66
11.05
7.15
3.35
-0.07
-2.96
-5.38
-7.51
-9.61
-11.93
-14.65
-17.85
-21.43
-25.14
-28.66
-31.68
-34.04
-35.68
-36.74
-37.43
-38.07
-39.08
-40.87
-43.76
-47.70
-52.16
-56.06
-58.03
-56.83
-51.71
-42.77
-30.86
-17.35
-3.76
8.66
19.10
27.26
33.23
37.35
39.94
41.24
41.37
40.35
38.23
35.20
31.59
27.76
24.05
20.64
17.51
14.59
11.85
9.42
7.56
6.58
6.60
7.38
8.32
8.65
7.65
5.01
0.99
-3.77
-8.41
-12.24
-14.94
-16.67
-17.84
-18.98
-20.40
-22.11
-23.74
-24.59
-23.90
-21.03
-15.75
-8.53
-0.69
5.61
7.83
3.88
-6.86
-22.87
-40.22
-53.51
-57.43
-48.44
-26.08
6.94
45.64
84.47
118.73
145.51
163.65
173.35
175.50
171.40
162.58
150.68
137.31
123.74
110.65
97.99
85.25
71.80
57.24
41.53
24.96
8.01
-8.72
-24.58
-39.03
-51.78
-62.85
-72.57
-81.21
-88.75
-94.63
-98.03
-98.38
-95.84
-91.51
-87.05
-84.08
-83.42
-84.86
-87.31
-89.32
-89.72
-87.93
-84.08
-78.84
-73.19
-68.08
-64.38
-62.74
-63.39
-66.01
-69.67
-72.94
-74.26
-72.30
-66.48
-57.11
-45.33
-32.72
-20.61
-9.87
-0.80
6.52
12.11
15.91
17.82
17.74
15.62
11.67
6.21
-0.36
-7.51
-14.36
-19.71
-22.15
-20.45
-14.02
-3.06
11.02
25.84
38.74
47.69
52.09
52.90
52.16
50.29
47.63
44.71
42.92
44.09
49.39
58.47
69.40
79.08
84.37
83.61
76.97
66.34
54.42
43.53
34.44
26.62
18.75
9.95
1.19
-4.94
-4.81
4.02
21.20
42.23
60.62
70.23
67.97
54.92
34.76
12.43
-8.60
-25.31
-37.89
-47.90
-57.39
-66.33
-73.27
-76.94
-75.35
-66.49
-49.24
-24.55
4.62
33.94
56.70
69.01
68.30
54.76
31.30
2.77
-25.35
-47.66
-60.05
-60.78
-46.71
-23.74
-1.01
14.41
20.15
17.94
11.62
4.70
-0.97
-4.96
-8.33
-11.14
-12.40
-11.11
-7.37
-2.33
2.33
5.15
5.63
3.70
0.60
-1.84
-2.18
-0.17
3.40
7.20
9.95
11.01
10.04
7.74
5.23
3.58
3.21
4.23
6.56
9.87
13.47
15.69
14.45
7.76
-5.20
-23.80
-45.61
-67.15
-85.06
-97.04
-102.25
-100.89
-94.59
-83.79
-69.82
-54.52
-39.92
-27.64
-18.25
-11.12
-4.83
1.89
9.55
17.36
23.86
27.77
28.57
26.76
23.59
20.56
18.88
19.22
21.43
24.82
28.48
31.43
32.97
32.75
30.89
27.91
24.57
21.46
18.98
17.26
16.27
15.92
16.16
16.93
18.16
19.68
21.10
21.91
21.66
20.02
16.73
11.63
4.65
-4.02
-13.83
-24.00
-33.56
-41.72
-48.07
-52.54
-55.57
-58.04
-60.88
-64.75
-69.87
-75.98
-82.55
-88.97
-94.61
-98.96
-101.53
-101.81
-99.42
-94.36
-87.11
-78.63
-69.95
-61.64
-53.19
-43.15
-29.81
-12.17
9.40
33.25
57.15
79.42
99.51
118.26
137.05
156.63
176.30
193.98
207.03
213.22
211.61
202.80
189.25
174.57
162.16
154.08
150.45
149.72
148.85
144.15
131.99
110.51
80.24
43.63
4.18
-34.79
-70.43
-101.67
-129.37
-155.47
-180.28
-201.15
-213.39
-212.51
-196.59
-166.04
-123.20
-69.20
-9.22
49.42
100.85
141.11
166.78
175.08
167.77
151.43
134.94
124.82
122.62
125.19
126.94
126.13
118.80
104.98
86.82
66.37
44.49
21.54
-1.08
-21.28
-37.70
-51.10
-62.69
-74.77
-90.96
-112.12
-139.58
-172.80
-208.92
-243.94
-273.44
-291.23
-290.86
-268.22
-223.63
-162.24
-91.78
-20.66
42.55
89.71
115.51
117.76
96.65
54.88
-1.58
-63.02
-111.60
-128.84
-110.89
-71.64
-30.44
-0.00
16.65
23.10
25.12
26.95
28.82
28.05
22.90
14.85
7.34
3.54
4.93
10.78
18.55
24.07
23.19
14.78
1.88
-10.44
-18.08
-18.36
-11.64
-0.55
10.93
19.44
24.28
27.71
32.23
39.22
48.33
57.63
64.87
68.25
67.05
62.02
54.91
46.14
35.22
21.26
3.48
-18.38
-44.35
-74.89
-109.45
-144.42
-176.29
-201.04
-214.65
-214.31
-199.48
-172.84
-139.74
-108.63
-81.02
-57.12
-35.61
-14.19
9.37
36.45
67.67
100.55
132.71
162.27
186.83
204.74
215.26
218.37
214.39
203.89
187.66
167.42
145.80
124.89
106.32
90.77
77.58
65.09
51.45
35.48
17.52
-0.91
-18.37
-33.84
-47.00
-58.17
-67.98
-77.11
-86.14
-95.42
-105.12
-115.45
-126.23
-136.70
-145.62
-151.66
-153.97
-152.53
-148.06
-141.67
-134.29
-126.08
-116.18
-103.11
-85.34
-62.16
-34.19
-3.48
26.86
53.43
73.52
85.87
90.96
90.66
87.34
82.87
78.06
72.70
66.07
57.60
47.08
34.49
19.77
3.17
-14.15
-29.59
-39.45
-40.43
-31.51
-14.94
4.36
21.10
32.08
37.56
40.59
44.70
51.74
60.87
69.36
74.35
74.30
69.37
60.58
48.77
34.00
15.75
-6.19
-31.05
-56.83
-80.87
-100.68
-114.86
-123.39
-127.59
-129.47
-130.90
-132.92
-135.48
-137.58
-137.83
-135.13
-129.12
-120.24
-109.35
-97.26
-84.25
-69.96
-53.60
-34.44
-12.27
12.37
38.28
64.04
88.45
110.90
131.49
150.59
168.46
184.85
198.89
209.45
215.54
216.65
212.92
204.91
193.50
179.66
164.51
149.27
135.12
122.89
112.83
104.58
97.46
91.03
85.36
81.08
78.88
78.93
80.58
82.46
83.09
81.66
78.70
76.07
76.45
82.15
94.20
111.76
132.43
153.07
170.76
183.50
190.52
192.02
188.86
182.19
173.21
162.86
151.51
138.79
123.78
105.43
83.15
57.08
27.89
-3.80
-37.87
-74.79
-115.27
-159.64
-207.33
-256.58
-304.45
-347.30
-381.42
-404.08
-414.32
-413.50
-404.87
-392.37
-378.99
-365.75
-351.68
-334.95
-314.38
-290.26
-264.26
-238.35
-213.77
-190.74
-168.90
-148.38
-130.16
-115.96
-107.16
-103.84
-104.38
-106.01
-105.83
-101.88
-93.55
-81.54
-67.36
-52.88
-39.91
-29.87
-23.48
-20.49
-19.81
-19.93
-19.63
-18.55
-17.43
-17.63
-20.32
-25.83
-33.28
-40.95
-47.14
-50.99
-52.92
-54.35
-56.85
-61.10
-66.77
-72.91
-78.50
-82.88
-85.84
-87.39
-87.24
-84.48
-77.53
-65.17
-47.30
-25.13
-0.82
23.27
45.18
63.70
78.45
90.38
100.69
110.44
120.47
131.61
144.43
159.05
175.08
191.81
210.45
231.61
254.75
278.41
301.23
322.18
340.45
355.20
365.65
374.76
383.91
391.68
395.12
392.64
385.12
375.24
366.06
359.79
362.70
376.43
396.53
415.23
426.82
429.69
425.61
417.64
408.35
406.28
414.55
428.81
440.37
442.73
433.74
414.74
388.29
309.84
166.28
-19.40
-204.48
-357.86
-469.94
-544.89
-590.83
-615.44
-624.86
-616.37
-590.00
-551.44
-512.41
-478.63
-451.86
-430.80
-412.90
-395.73
-372.05
-338.78
-298.88
-259.11
-224.80
-198.44
-179.66
-166.99
-158.70
-149.28
-135.09
-116.03
-94.66
-73.48
-54.25
-37.77
-24.21
-13.25
-2.46
9.79
23.46
37.26
50.04
61.11
70.40
78.23
85.02
91.69
98.45
104.44
108.28
108.83
105.61
98.95
89.81
79.43
69.02
59.60
51.91
46.51
43.67
43.25
44.67
47.01
49.23
50.51
50.51
49.30
47.25
44.85
42.55
40.68
39.44
38.89
38.87
39.03
38.86
37.87
35.79
32.53
28.35
23.67
18.87
14.14
9.42
4.62
-0.20
-4.65
-8.21
-10.21
-10.01
-7.18
-1.68
6.15
15.73
26.27
36.95
46.60
54.25
59.37
61.97
62.36
61.06
58.55
55.14
50.91
44.80
35.99
24.35
10.49
-4.73
-20.53
-36.21
-51.03
-64.18
-76.80
-89.67
-102.57
-114.55
-124.68
-132.56
-138.09
-141.31
-142.31
-144.48
-150.51
-161.00
-174.62
-189.39
-203.72
-216.56
-227.16
-235.04
-243.66
-255.47
-270.04
-284.88
-297.30
-305.88
-310.64
-312.67
-290.31
-234.76
-153.60
-66.19
9.95
67.42
107.11
133.14
149.65
159.96
162.87
155.91
142.15
126.33
112.49
102.87
97.94
97.22
99.76
101.40
98.65
90.38
78.80
65.70
52.37
39.69
28.36
19.05
10.38
1.27
-8.06
-16.84
-24.49
-30.94
-36.42
-41.11
-44.89
-48.31
-51.61
-54.41
-56.19
-56.70
-55.80
-53.31
-48.85
-41.91
-32.37
-20.32
-5.79
11.22
30.78
53.28
79.26
109.19
142.98
179.61
217.04
252.44
282.61
304.58
316.40
317.48
308.72
292.18
270.37
245.30
217.95
188.32
156.07
121.41
85.65
50.93
19.47
-7.38
-29.49
-47.76
-63.25
-76.47
-87.12
-94.45
-97.84
-97.38
-93.93
-88.81
-83.37
-78.60
-74.94
-72.36
-70.55
-69.15
-68.02
-67.21
-66.90
-67.24
-68.22
-69.66
-71.30
-72.84
-74.02
-74.56
-74.08
-72.08
-68.11
-61.87
-53.51
-43.54
-32.75
-21.98
-11.85
-2.70
5.40
12.48
18.66
23.99
28.57
32.42
35.59
38.05
39.71
40.50
40.35
39.29
37.48
35.13
32.50
29.72
26.81
23.66
20.06
15.83
10.91
5.39
-0.43
-6.18
-11.45
-15.99
-19.79
-23.07
-26.30
-29.96
-34.38
-39.56
-45.13
-50.44
-54.78
-57.67
-58.99
-58.98
-58.13
-57.01
-56.15
-55.95
-56.68
-58.37
-60.73
-63.09
-64.55
-64.31
-62.02
-57.92
-52.75
-47.35
-42.23
-37.36
-32.25
-26.23
-18.84
-9.91
0.47
12.11
24.89
38.70
53.22
67.85
81.65
93.60
102.89
109.18
112.63
113.78
113.24
111.43
108.53
104.48
99.21
92.74
85.29
77.23
68.94
60.76
52.85
45.23
37.78
30.24
22.30
13.63
3.87
-7.32
-20.23
-34.95
-51.11
-67.76
-83.35
-96.03
-104.22
-107.13
-105.05
-99.17
-91.15
-82.44
-73.94
-65.88
-58.15
-50.61
-43.30
-36.44
-30.21
-24.58
-19.26
-13.76
-7.71
-0.96
6.26
13.54
20.43
26.72
32.43
37.73
42.66
47.06
50.51
52.57
52.98
51.80
49.37
46.13
42.33
38.01
33.10
27.58
21.61
15.45
9.40
3.58
-2.09
-7.91
-14.15
-21.04
-28.59
-36.61
-44.70
-52.26
-58.68
-63.34
-65.87
-66.22
-64.70
-61.91
-58.52
-54.99
-51.51
-47.95
-44.03
-39.53
-34.41
-28.87
-23.17
-17.50
-11.89
-6.20
-0.27
5.91
12.11
17.99
23.18
27.56
31.19
34.33
37.20
39.86
42.17
43.83
44.53
44.13
42.60
40.12
36.87
33.04
28.78
24.18
19.36
14.43
9.44
4.38
-0.86
-6.40
-12.35
-18.62
-24.87
-30.46
-34.60
-36.56
-35.94
-32.77
-27.55
-21.04
-13.96
-6.83
0.08
6.68
12.82
18.25
22.63
25.67
27.31
27.65
26.99
25.66
23.90
21.85
19.66
17.47
15.49
13.86
12.64
11.70
10.79
9.73
8.43
6.98
5.52
4.13
2.73
1.14
-0.80
-3.12
-5.71
-8.35
-10.91
-13.43
-16.12
-19.26
-23.07
-27.65
-32.91
-38.57
-44.13
-48.91
-52.08
-52.84
-50.74
-45.72
-38.25
-29.13
-19.25
-9.39
-0.14
8.11
15.12
20.72
24.85
27.60
29.21
30.02
30.41
30.71
31.14
31.77
32.56
33.36
34.00
34.35
34.33
33.91
33.13
31.98
30.41
28.31
25.60
22.24
18.32
14.04
9.61
5.22
0.97
-3.11
-7.06
-10.95
-14.86
-18.88
-23.10
-27.61
-32.45
-37.58
-42.77
-47.62
-51.52
-53.82
-53.85
-51.17
-45.76
-37.97
-28.59
-18.55
-8.77
0.09
7.67
13.90
18.85
22.64
25.37
27.09
27.93
28.07
27.80
27.41
27.16
27.22
27.62
28.32
29.16
29.94
30.38
30.29
29.51
28.05
25.98
23.46
20.72
17.90
15.13
12.40
9.66
6.78
3.63
0.16
-3.60
-7.46
-11.15
-14.38
-16.99
-18.99
-20.61
-22.27
-24.35
-27.12
-30.56
-34.32
-37.76
-40.07
-40.48
-38.46
-33.92
-27.18
-18.94
-10.08
-1.40
6.57
13.63
19.82
25.24
29.89
33.64
36.28
37.67
37.89
37.23
36.06
34.75
33.47
32.24
30.97
29.60
28.20
26.88
25.74
24.76
23.78
22.60
21.03
19.01
16.59
13.96
11.24
8.54
5.87
3.20
0.47
-2.33
-5.18
-8.02
-10.76
-13.34
-15.73
-17.99
-20.27
-22.78
-25.69
-28.99
-32.40
-35.35
-37.15
-37.14
-34.98
-30.70
-24.71
-17.62
-10.09
-2.68
4.18
10.18
15.14
18.95
21.58
23.16
23.81
23.78
23.25
22.40
21.37
20.31
19.35
18.60
18.17
18.07
18.29
18.71
19.18
19.49
19.46
19.01
18.15
17.01
15.75
14.52
13.38
12.28
11.08
9.61
7.72
5.30
2.41
-0.81
-4.12
-7.30
-10.20
-12.75
-15.08
-17.40
-19.98
-22.98
-26.35
-29.72
-32.51
-34.04
-33.74
-31.39
-27.16
-21.55
-15.24
-8.85
-2.87
2.51
7.25
11.46
15.16
18.25
20.51
21.66
21.60
20.45
18.60
16.49
14.50
12.68
10.93
9.05
6.97
4.84
2.91
1.43
0.41
-0.35
-1.15
-2.29
-3.91
-5.96
-8.26
-10.65
-12.94
-15.08
-17.07
-18.99
-20.90
-22.86
-24.81
-26.65
-28.24
-29.54
-30.64
-31.73
-33.03
-34.67
-36.62
-38.66
-40.49
-41.75
-42.15
-41.42
-39.38
-35.89
-30.95
-24.69
-17.48
-9.81
-2.23
4.80
10.95
16.08
20.13
23.19
25.34
26.74
27.53
27.86
27.85
27.61
27.18
26.60
25.88
25.05
24.17
23.36
22.75
22.45
22.44
22.59
22.59
22.12
20.86
18.73
15.87
12.62
9.43
6.63
4.31
2.28
0.12
-2.55
-5.88
-9.72
-13.64
-17.22
-20.19
-22.57
-24.62
-26.68
-29.05
-31.88
-35.20
-38.89
-42.69
-46.17
-48.70
-49.60
-48.33
-44.63
-38.70
-31.10
-22.60
-13.95
-5.79
1.45
7.56
12.52
16.39
19.32
21.49
23.04
24.11
24.80
25.27
25.67
26.15
26.77
27.50
28.17
28.62
28.79
28.73
28.59
28.47
28.35
27.99
27.04
25.23
22.46
18.91
14.95
11.05
7.60
4.82
2.67
0.93
-0.73
-2.68
-5.13
-8.16
-11.60
-15.13
-18.40
-21.11
-23.18
-24.79
-26.34
-28.30
-31.06
-34.75
-39.12
-43.61
-47.40
-49.66
-49.72
-47.21
-42.12
-34.82
-25.92
-16.15
-6.26
3.14
11.61
18.91
24.94
29.72
33.35
35.95
37.68
38.63
38.91
38.57
37.70
36.43
34.98
33.59
32.41
31.53
30.84
30.18
29.34
28.17
26.56
24.52
22.09
19.42
16.65
13.92
11.30
8.69
5.97
2.98
-0.32
-3.86
-7.43
-10.73
-13.54
-15.79
-17.61
-19.27
-21.16
-23.64
-26.96
-31.13
-35.85
-40.48
-44.16
-45.97
-45.25
-41.78
-35.84
-28.16
-19.62
-11.05
-3.03
4.15
10.39
15.68
20.06
23.53
26.10
27.76
28.59
28.65
28.12
27.23
26.19
25.23
24.45
23.90
23.56
23.42
23.42
23.49
23.44
23.02
21.97
20.12
17.53
14.47
11.33
8.48
6.13
4.28
2.69
1.05
-0.88
-3.27
-6.06
-9.06
-12.04
-14.82
-17.31
-19.60
-21.90
-24.45
-27.42
-30.73
-34.08
-36.90
-38.49
-38.14
-35.42
-30.30
-23.18
-14.82
-6.08
2.28
9.75
16.09
21.24
25.19
27.95
29.55
30.04
29.57
28.38
26.72
24.86
23.05
21.46
20.26
19.52
19.28
19.47
19.99
20.67
21.29
21.61
21.37
20.42
18.72
16.43
13.79
11.12
8.61
6.33
4.16
1.88
-0.65
-3.50
-6.57
-9.65
-12.51
-14.99
-17.08
-18.92
-20.82
-23.17
-26.28
-30.19
-34.55
-38.59
-41.33
-41.86
-39.71
-34.97
-28.32
-20.72
-13.13
-6.24
-0.39
4.41
8.28
11.34
13.67
15.26
16.11
16.27
15.87
15.08
14.08
13.04
12.09
11.26
10.48
9.66
8.69
7.57
6.45
5.55
5.03
4.91
4.94
4.70
3.77
1.88
-0.97
-4.64
-8.95
-13.82
-19.24
-25.22
-31.59
-38.03
-44.19
-49.85
-54.97
-59.53
-63.32
-65.63
-65.37
-61.44
-53.25
-41.22
-26.78
-11.93
1.48
12.47
21.22
28.87
37.04
47.22
60.23
76.07
93.89
112.14
128.74
141.38
147.87
146.73
137.72
121.99
101.99
80.71
60.89
44.27
31.31
21.53
13.98
7.85
2.73
-1.48
-4.82
-7.51
-9.95
-12.55
-15.47
-18.60
-21.59
-24.07
-25.80
-26.89
-27.66
-28.60
-30.13
-32.46
-35.42
-38.46
-40.81
-41.62
-40.30
-36.65
-31.01
-24.09
-16.78
-9.85
-3.74
1.47
5.95
9.88
13.32
16.13
18.03
18.77
18.29
16.85
14.92
13.07
11.75
11.10
10.97
11.01
10.86
10.28
9.29
8.07
6.80
5.60
4.39
2.99
1.12
-1.40
-4.71
-8.76
-13.41
-18.36
-23.23
-27.67
-31.43
-34.43
-36.78
-38.75
-40.64
-42.72
-45.10
-47.67
-50.03
-51.60
-51.67
-49.71
-45.48
-39.20
-31.53
-23.33
-15.44
-8.48
-2.77
1.63
4.81
6.93
8.19
8.76
8.84
8.60
8.21
7.75
7.25
6.70
6.02
5.16
4.12
3.01
1.99
1.27
0.99
1.13
1.48
1.70
1.43
0.43
-1.39
-3.87
-6.70
-9.55
-12.20
-14.55
-16.67
-18.69
-20.70
-22.78
-24.97
-27.32
-29.80
-32.23
-34.23
-35.22
-34.62
-32.11
-27.76
-22.02
-15.57
-9.10
-3.05
2.34
7.03
10.93
13.91
15.79
16.42
15.84
14.28
12.16
9.89
7.84
6.16
4.80
3.56
2.27
0.92
-0.22
-0.82
-0.61
0.32
1.57
2.42
2.26
0.72
-2.11
-5.76
-9.55
-12.87
-15.36
-17.02
-18.16
-19.31
-21.05
-23.83
-27.89
-33.14
-39.13
-45.09
-49.98
-52.69
-52.37
-48.60
-41.71
-32.60
-22.55
-12.73
-3.90
3.67
10.16
15.85
20.93
25.38
29.04
31.71
33.29
33.76
33.27
32.03
30.35
28.61
27.14
26.23
26.01
26.48
27.41
28.47
29.23
29.32
28.50
26.75
24.29
21.43
18.51
15.79
13.38
11.24
9.23
7.18
4.89
2.16
-1.16
-5.17
-9.79
-14.69
-19.25
-22.72
-24.33
-23.55
-20.26
-14.82
-8.00
-0.75
6.08
11.93
16.64
20.33
23.28
25.69
27.60
28.86
29.33
28.88
27.65
25.96
24.22
22.73
21.64
20.84
20.08
19.13
17.93
16.60
15.40
14.57
14.20
14.15
14.07
13.51
12.05
9.52
6.05
2.11
-1.73
-4.98
-7.48
-9.40
-11.09
-12.96
-15.22
-17.88
-20.78
-23.65
-26.13
-27.79
-28.10
-26.62
-23.15
-17.86
-11.33
-4.36
2.29
8.10
12.86
16.53
19.13
20.66
21.13
20.70
19.69
18.52
17.54
16.93
16.68
16.60
16.46
16.11
15.50
14.64
13.62
12.52
11.43
10.42
9.45
8.42
7.16
5.47
3.25
0.59
-2.35
-5.33
-8.14
-10.64
-12.76
-14.47
-15.77
-16.74
-17.55
-18.51
-19.95
-22.08
-24.86
-27.87
-30.36
-31.48
-30.53
-27.30
-22.08
-15.61
-8.75
-2.27
3.40
8.13
11.94
14.87
16.86
17.80
17.67
16.63
15.02
13.26
11.70
10.52
9.70
9.09
8.59
8.11
7.69
7.33
7.01
6.64
6.13
5.45
4.66
3.92
3.41
3.23
3.34
3.55
3.60
3.29
2.54
1.39
-0.05
-1.67
-3.41
-5.19
-6.99
-8.78
-10.60
-12.60
-15.00
-17.94
-21.31
-24.62
-27.02
-27.60
-25.73
-21.33
-14.96
-7.63
-0.42
5.75
10.37
13.38
15.01
15.66
15.75
15.63
15.53
15.51
15.50
15.34
14.88
14.01
12.78
11.32
9.85
8.60
7.78
7.49
7.74
8.37
9.12
9.59
9.41
8.32
6.31
3.60
0.60
-2.23
-4.54
-6.17
-7.19
-7.81
-8.29
-8.84
-9.63
-10.75
-12.30
-14.36
-16.93
-19.80
-22.52
-24.43
-24.89
-23.52
-20.37
-15.96
-11.01
-6.22
-1.99
1.63
4.81
7.79
10.66
13.23
15.16
16.06
15.74
14.29
12.04
9.50
7.19
5.48
4.54
4.34
4.72
5.41
6.19
6.86
7.32
7.52
7.41
6.95
6.05
4.63
2.71
0.41
-2.01
-4.29
-6.27
-7.94
-9.49
-11.19
-13.32
-16.08
-19.47
-23.40
-27.63
-31.86
-35.72
-38.85
-40.84
-41.34
-40.07
-36.93
-32.03
-25.77
-18.73
-11.60
-4.98
0.73
5.40
9.06
11.85
13.84
15.05
15.50
15.26
14.52
13.59
12.79
12.37
12.45
13.01
13.94
15.01
15.93
16.36
15.96
14.56
12.24
9.35
6.36
3.71
1.65
0.13
-1.09
-2.30
-3.84
-5.94
-8.74
-12.24
-16.26
-20.43
-24.38
-27.84
-30.82
-33.54
-36.35
-39.39
-42.47
-45.07
-46.42
-45.90
-43.07
-37.90
-30.61
-21.69
-11.87
-2.04
6.86
14.05
19.13
22.26
24.00
25.12
26.21
27.51
28.94
30.24
31.25
32.00
32.64
33.32
34.00
34.51
34.59
34.10
33.01
31.54
29.89
28.24
26.57
24.71
22.48
19.73
16.58
13.26
10.09
7.27
4.79
2.45
-0.02
-2.77
-5.76
-8.78
-11.56
-13.89
-15.74
-17.22
-18.53
-19.89
-21.53
-23.56
-25.94
-28.41
-30.42
-31.27
-30.28
-27.08
-21.76
-14.90
-7.35
0.06
6.71
12.24
16.57
19.63
21.36
21.71
20.74
18.76
16.28
13.87
11.95
10.67
9.88
9.27
8.54
7.61
6.58
5.69
5.11
4.90
4.92
4.93
4.72
4.13
3.11
1.75
0.24
-1.23
-2.52
-3.57
-4.43
-5.20
-6.07
-7.19
-8.61
-10.26
-11.93
-13.41
-14.51
-15.19
-15.62
-16.25
-17.54
-19.83
-23.06
-26.69
-29.83
-31.28
-30.01
-25.61
-18.65
-10.50
-2.76
3.29
7.13
8.97
9.79
10.80
12.65
14.91
16.30
15.42
11.56
4.98
-3.19
-10.87
-15.88
-16.97
-14.78
-11.30
-8.94
-9.35
-12.93
-18.96
-25.30
-28.82
-26.21
-14.97
6.11
36.66
74.37
114.94
148.69
164.86
157.85
132.03
99.11
70.47
51.70
42.18
38.10
35.71
33.85
33.70
36.83
43.13
50.61
56.68
59.31
58.12
53.95
48.79
44.60
42.66
42.01
40.87
37.89
32.40
25.11
17.51
11.52
8.52
8.84
11.49
14.85
17.49
18.03
15.93
11.02
3.16
-8.11
-23.66
-44.83
-73.17
-105.01
-137.50
-167.61
-192.81
-211.54
-223.37
-228.84
-229.15
-225.73
-220.04
-213.87
-207.95
-201.49
-192.21
-177.27
-154.68
-124.84
-90.76
-56.92
-27.87
-5.85
9.69
21.05
30.70
39.83
48.16
54.81
59.54
62.81
65.91
69.92
74.97
80.13
83.91
85.04
83.23
79.26
74.46
70.24
67.45
66.07
65.36
64.27
62.02
58.42
53.91
49.19
44.92
41.36
38.32
35.27
31.57
26.75
20.61
13.31
5.29
-2.95
-10.90
-18.17
-24.51
-29.81
-34.01
-37.19
-39.46
-41.06
-42.30
-43.52
-44.94
-46.70
-48.87
-51.52
-54.73
-58.50
-62.55
-66.24
-68.60
-68.62
-65.66
-59.68
-51.29
-41.54
-31.45
-21.75
-12.79
-4.64
2.63
8.82
13.63
16.72
17.83
16.94
14.18
9.87
4.46
-1.54
-7.64
-13.47
-18.94
-24.15
-29.40
-34.99
-41.12
-47.81
-54.92
-62.32
-69.92
-77.77
-85.95
-94.52
-103.32
-111.99
-120.07
-127.04
-132.38
-135.63
-136.28
-133.83
-127.95
-118.61
-106.27
-91.70
-75.76
-58.95
-41.17
-21.94
-0.77
22.36
46.90
71.91
96.57
120.47
143.64
166.22
187.93
207.98
225.14
238.17
246.31
249.45
248.15
243.22
235.52
225.68
214.14
201.23
187.28
172.79
158.36
144.65
132.29
121.68
112.91
105.66
99.28
92.90
85.74
77.30
67.64
57.30
47.06
37.52
28.79
20.44
11.78
2.28
-8.14
-19.09
-29.95
-40.17
-49.48
-57.85
-65.32
-71.89
-77.50
-82.22
-86.25
-89.93
-93.46
-96.64
-98.74
-98.63
-95.20
-87.81
-76.63
-62.64
-47.34
-32.26
-18.52
-6.73
3.01
10.85
16.95
21.45
24.43
26.06
26.62
26.48
26.02
25.54
25.21
25.05
25.01
25.02
25.06
25.19
25.47
25.88
26.22
26.21
25.56
24.09
21.88
19.12
16.08
12.97
9.93
7.07
4.51
2.35
0.57
-1.00
-2.72
-4.94
-7.85
-11.37
-15.21
-19.02
-22.60
-25.99
-29.40
-33.10
-37.22
-41.79
-46.60
-51.26
-55.13
-57.41
-57.24
-54.01
-47.59
-38.41
-27.43
-15.83
-4.69
5.23
13.54
20.14
25.06
28.34
30.12
30.58
30.01
28.76
27.15
25.45
23.81
22.31
21.03
20.01
19.28
18.89
18.79
18.88
19.00
18.99
18.72
18.16
17.31
16.18
14.71
12.82
10.43
7.54
4.25
0.75
-2.73
-6.07
-9.26
-12.41
-15.66
-19.18
-23.00
-27.09
-31.31
-35.48
-39.38
-42.86
-45.91
-48.69
-51.58
-54.93
-58.97
-63.54
-67.98
-71.29
-72.29
-70.02
-64.07
-54.72
-42.83
-29.70
-16.59
-4.47
6.13
15.04
22.30
27.89
31.80
34.11
35.03
35.04
34.70
34.49
34.64
35.17
35.89
36.62
37.27
37.87
38.50
39.22
39.96
40.54
40.69
40.09
38.46
35.69
31.88
27.40
22.72
18.23
14.06
10.08
5.95
1.40
-3.52
-8.46
-12.89
-16.40
-18.85
-20.51
-21.89
-23.46
-25.58
-28.25
-31.32
-34.50
-37.52
-40.19
-42.42
-44.32
-46.14
-48.30
-51.19
-55.07
-59.78
-64.72
-68.83
-70.87
-69.69
-64.58
-55.56
-43.37
-29.31
-14.88
-1.48
10.05
19.35
26.57
32.04
36.06
38.83
40.42
40.90
40.53
39.67
38.75
38.10
37.83
37.91
38.13
38.40
38.61
38.77
38.87
38.84
38.55
37.85
36.61
34.72
32.23
29.25
25.97
22.63
19.43
16.45
13.64
10.82
7.80
4.58
1.31
-1.74
-4.37
-6.62
-8.81
-11.38
-14.57
-18.39
-22.44
-26.29
-29.59
-32.39
-35.09
-38.26
-42.43
-47.86
-54.44
-61.64
-68.53
-73.93
-76.51
-75.17
-69.29
-59.06
-45.49
-30.17
-14.85
-0.99
10.57
19.65
26.53
31.72
35.67
38.67
40.75
41.91
42.20
41.80
41.06
40.38
40.12
40.42
41.16
42.05
42.84
43.45
44.01
44.73
45.86
47.62
49.94
52.42
54.51
55.72
55.78
54.68
52.66
50.33
48.61
48.09
48.74
49.79
50.28
49.55
47.44
44.58
42.22
42.06
44.90
50.35
56.58
61.62
64.01
63.13
59.39
54.12
49.47
46.73
46.06
45.69
43.25
36.25
22.27
-0.51
-35.24
-80.08
-128.92
-174.19
-211.15
-236.34
-246.57
-239.88
-216.56
-179.51
-133.03
-85.19
-37.45
6.99
43.65
67.35
73.76
62.95
41.21
19.60
9.10
15.99
38.71
68.63
92.33
96.07
71.76
19.48
-53.73
-137.21
-218.85
-288.14
-336.92
-361.13
-361.87
-342.75
-308.21
-262.29
-207.86
-145.48
-74.84
4.36
91.53
172.77
228.49
247.63
235.22
206.88
178.86
160.34
152.45
149.69
144.63
134.30
121.51
111.70
108.37
113.16
120.25
123.37
118.01
102.89
81.43
59.86
43.54
34.38
30.87
29.19
25.95
19.08
8.15
-4.88
-16.57
-23.91
-25.95
-23.81
-20.02
-16.74
-15.39
-16.30
-18.65
-20.95
-22.05
-21.71
-20.55
-19.60
-19.49
-20.36
-21.88
-23.43
-24.28
-24.06
-22.97
-21.65
-20.91
-21.26
-22.80
-25.05
-27.52
-29.74
-31.49
-32.80
-33.96
-35.35
-37.24
-39.60
-41.79
-43.70
-45.31
-46.74
-47.90
-48.48
-47.81
-45.05
-39.18
-28.68
-13.75
4.57
24.65
44.70
63.02
78.05
88.57
94.16
96.42
96.10
94.31
92.39
91.05
89.49
84.53
70.89
42.45
-0.31
-53.43
-107.65
-151.92
-176.59
-175.07
-145.34
-91.03
-28.08
38.58
101.94
154.56
190.27
204.95
197.10
167.34
118.07
55.58
-10.93
-75.35
-133.90
-183.86
-221.24
-239.22
-229.40
-185.96
-109.69
-9.78
95.23
184.74
242.99
263.09
247.06
202.18
137.42
62.06
-13.12
-76.52
-115.79
-121.29
-91.19
-34.54
29.88
79.95
98.65
79.77
27.23
-47.90
-131.99
-212.46
-278.94
-323.60
-339.61
-321.64
-268.27
-185.51
-87.39
6.68
77.30
110.42
99.10
45.79
-38.31
-136.33
-230.40
-305.08
-349.17
-356.72
-328.55
-274.70
-211.55
-156.73
-123.71
-118.54
-138.46
-173.61
-211.46
-230.85
-220.68
-187.34
-149.62
-122.90
-110.82
-108.54
-110.59
-113.14
-116.24
-122.91
-134.27
-147.00
-154.24
-150.51
-133.52
-104.57
-67.20
-25.34
16.80
56.84
95.16
133.94
174.69
216.98
258.48
296.47
328.86
354.28
373.26
388.60
404.41
424.01
448.40
475.50
500.87
518.89
524.22
513.94
488.65
452.11
409.36
364.95
321.71
280.78
242.13
205.41
170.55
137.99
108.20
81.27
56.78
34.05
12.55
-7.86
-26.80
-43.60
-57.72
-69.05
-78.05
-85.73
-93.18
-101.21
-109.83
-118.14
-124.55
-127.37
-125.47
-118.79
-108.33
-95.69
-82.53
-69.96
-58.46
-48.04
-38.63
-30.38
-23.71
-19.06
-16.58
-15.88
-16.25
-16.86
-17.10
-16.80
-16.20
-15.68
-15.56
-15.86
-16.37
-16.76
-16.77
-16.37
-15.79
-15.37
-15.41
-16.07
-17.30
-18.88
-20.58
-22.19
-23.66
-25.02
-26.32
-27.66
-29.10
-30.65
-32.26
-33.83
-35.30
-36.58
-37.73
-38.85
-40.07
-41.59
-43.61
-46.35
-50.05
-54.79
-60.33
-65.96
-70.54
-72.74
-71.46
-66.27
-57.57
-46.48
-34.45
-22.81
-12.48
-3.83
3.18
8.79
13.28
16.85
19.67
21.74
23.11
23.82
23.94
23.60
22.98
22.31
21.75
21.37
21.16
20.96
20.62
19.98
18.95
17.51
15.70
13.54
11.05
8.25
5.21
2.05
-1.05
-3.98
-6.72
-9.41
-12.26
-15.47
-19.07
-22.95
-26.87
-30.66
-34.30
-38.02
-42.10
-46.80
-52.11
-57.71
-62.99
-67.09
-69.10
-68.24
-64.05
-56.56
-46.29
-34.19
-21.43
-9.15
1.79
10.93
18.21
23.82
28.08
31.23
33.43
34.77
35.32
35.26
34.82
34.28
33.84
33.58
33.39
33.18
32.79
32.21
31.45
30.61
29.75
28.91
28.03
26.97
25.58
23.73
21.38
18.63
15.70
12.75
9.92
7.13
4.19
0.86
-3.03
-7.44
-12.24
-17.14
-21.91
-26.47
-30.83
-35.12
-39.45
-43.89
-48.41
-52.95
-57.36
-61.37
-64.51
-66.07
-65.30
-61.61
-54.83
-45.38
-34.20
-22.45
-11.23
-1.24
7.19
14.13
19.84
24.55
28.40
31.42
33.55
34.71
34.94
34.42
33.45
32.34
31.43
30.90
30.85
31.29
32.17
33.38
34.67
35.75
36.24
35.88
34.51
32.27
29.45
26.42
23.52
20.95
18.75
16.79
14.95
13.06
10.98
8.62
5.95
3.06
0.14
-2.59
-4.99
-7.06
-8.95
-10.86
-12.92
-15.18
-17.55
-19.96
-22.40
-25.00
-27.94
-31.41
-35.58
-40.47
-45.96
-51.69
-57.01
-61.05
-62.83
-61.57
-56.91
-49.13
-39.05
-27.83
-16.58
-6.09
3.33
11.68
19.04
25.40
30.55
34.29
36.51
37.44
37.57
37.47
37.55
37.94
38.53
39.03
39.28
39.20
38.83
38.25
37.44
36.37
34.99
33.35
31.53
29.63
27.73
25.79
23.76
21.57
19.21
16.68
13.97
11.10
8.12
5.10
2.13
-0.65
-3.20
-5.53
-7.72
-9.89
-12.15
-14.54
-17.05
-19.67
-22.34
-24.96
-27.44
-29.72
-31.72
-33.40
-34.83
-36.19
-37.76
-39.87
-42.83
-46.66
-51.04
-55.22
-58.17
-58.85
-56.53
-51.06
-42.87
-32.86
-22.11
-11.60
-2.05
6.11
12.68
17.59
20.94
22.94
23.93
24.32
24.57
24.93
25.50
26.16
26.70
26.95
26.94
26.87
27.07
27.84
29.29
31.21
33.13
34.45
34.73
33.77
31.77
29.11
26.23
23.48
20.97
18.66
16.45
14.24
11.93
9.49
6.95
4.31
1.62
-1.07
-3.75
-6.41
-9.07
-11.74
-14.43
-17.07
-19.65
-22.11
-24.39
-26.46
-28.34
-30.10
-31.91
-34.05
-36.83
-40.51
-45.10
-50.26
-55.19
-58.79
-59.93
-57.81
-52.20
-43.54
-32.81
-21.12
-9.48
1.35
10.95
19.08
25.58
30.36
33.47
35.11
35.64
35.44
34.80
33.89
32.79
31.56
30.41
29.62
29.45
29.98
31.04
32.28
33.28
33.77
33.65
32.97
31.83
30.28
28.33
26.03
23.53
21.06
18.79
16.76
14.86
12.86
10.55
7.90
5.01
2.08
-0.69
-3.25
-5.65
-8.06
-10.61
-13.35
-16.26
-19.21
-22.10
-24.85
-27.43
-29.79
-31.86
-33.62
-35.12
-36.55
-38.20
-40.39
-43.29
-46.74
-50.25
-52.97
-53.96
-52.42
-47.91
-40.57
-31.05
-20.39
-9.73
0.08
8.49
15.34
20.70
24.73
27.55
29.27
30.06
30.17
29.90
29.55
29.29
29.15
29.04
28.87
28.59
28.28
28.10
28.19
28.60
29.26
29.93
30.30
30.08
29.13
27.45
25.16
22.44
19.53
16.67
14.09
11.89
10.10
8.54
7.00
5.26
3.20
0.88
-1.58
-4.09
-6.62
-9.23
-11.99
-14.85
-17.70
-20.44
-23.06
-25.61
-28.17
-30.77
-33.32
-35.81
-38.28
-40.94
-44.03
-47.56
-51.14
-53.95
-54.90
-53.05
-47.97
-39.91
-29.73
-18.61
-7.59
2.59
11.65
19.56
26.34
31.83
35.82
38.07
38.56
37.53
35.44
32.80
30.08
27.54
25.30
23.36
21.65
20.14
18.81
17.65
16.70
15.96
15.33
14.67
13.74
12.32
10.30
7.78
5.01
2.31
-0.06
-2.04
-3.76
-5.46
-7.38
-9.67
-12.30
-15.11
-17.92
-20.60
-23.14
-25.60
-28.07
-30.58
-33.17
-35.84
-38.69
-41.81
-45.18
-48.51
-51.14
-52.11
-50.48
-45.65
-37.73
-27.50
-16.17
-5.06
4.84
13.09
19.66
24.75
28.61
31.32
32.91
33.39
32.90
31.73
30.19
28.56
27.05
25.78
24.81
24.20
23.96
24.07
24.39
24.77
25.06
25.11
24.83
24.15
23.08
21.63
19.82
17.73
15.42
12.96
10.38
7.67
4.82
1.84
-1.28
-4.47
-7.72
-10.94
-14.11
-17.15
-20.08
-22.95
-25.86
-29.02
-32.53
-36.52
-40.97
-45.70
-50.28
-53.99
-55.93
-55.25
-51.38
-44.25
-34.47
-23.08
-11.31
-0.24
9.42
17.41
23.73
28.50
31.85
33.88
34.76
34.79
34.33
33.70
33.08
32.50
31.89
31.25
30.65
30.24
30.09
30.14
30.20
30.05
29.51
28.51
27.07
25.27
23.18
20.96
18.70
16.56
14.58
12.71
10.84
8.81
6.56
4.11
1.51
-1.21
-4.10
-7.20
-10.49
-13.82
-16.94
-19.64
-21.85
-23.71
-25.51
-27.62
-30.38
-33.95
-38.25
-42.86
-47.06
-49.86
-50.25
-47.57
-41.64
-32.96
-22.55
-11.65
-1.37
7.53
14.77
20.40
24.68
27.86
30.11
31.51
32.05
31.83
30.97
29.67
28.20
26.72
25.37
24.26
23.46
23.00
22.86
22.89
22.93
22.74
22.21
21.33
20.16
18.80
17.37
15.85
14.21
12.48
10.66
8.86
7.15
5.55
4.03
2.43
0.55
-1.83
-4.84
-8.45
-12.49
-16.66
-20.63
-24.24
-27.50
-30.60
-33.85
-37.42
-41.33
-45.39
-49.20
-52.25
-53.91
-53.64
-51.00
-45.85
-38.40
-29.24
-19.20
-9.19
0.02
7.96
14.50
19.68
23.65
26.53
28.39
29.28
29.34
28.80
27.96
27.12
26.42
25.85
25.25
24.41
23.25
21.86
20.42
19.10
17.99
17.04
16.05
14.80
13.13
11.03
8.66
6.23
3.97
1.98
0.22
-1.53
-3.53
-6.00
-8.99
-12.37
-15.89
-19.27
-22.24
-24.71
-26.76
-28.59
-30.47
-32.65
-35.30
-38.46
-41.94
-45.33
-48.01
-49.17
-48.07
-44.22
-37.55
-28.57
-18.14
-7.40
2.61
11.16
17.95
23.06
26.81
29.56
31.54
32.86
33.50
33.49
32.99
32.28
31.70
31.45
31.53
31.81
32.05
32.10
31.94
31.58
30.95
29.94
28.31
25.91
22.79
19.29
15.79
12.64
9.96
7.62
5.33
2.86
0.19
-2.52
-4.99
-7.02
-8.56
-9.85
-11.24
-13.11
-15.75
-19.20
-23.24
-27.50
-31.54
-35.07
-38.13
-41.00
-44.17
-47.98
-52.42
-57.01
-60.82
-62.79
-62.02
-58.08
-51.15
-41.89
-31.24
-20.17
-9.49
0.24
8.67
15.66
21.17
25.27
28.09
29.83
30.76
31.14
31.24
31.25
31.28
31.36
31.44
31.44
31.31
31.12
30.94
30.84
30.78
30.66
30.31
29.56
28.32
26.55
24.35
21.86
19.30
16.85
14.60
12.47
10.27
7.82
5.05
2.12
-0.67
-3.02
-4.80
-6.15
-7.35
-8.73
-10.49
-12.72
-15.34
-18.19
-21.06
-23.75
-26.11
-28.11
-29.90
-31.80
-34.24
-37.52
-41.72
-46.58
-51.44
-55.44
-57.60
-57.08
-53.41
-46.60
-37.19
-26.12
-14.53
-3.53
6.05
13.71
19.36
23.19
25.54
26.72
27.01
26.54
25.46
23.95
22.25
20.65
19.42
18.69
18.45
18.63
19.13
19.91
20.95
22.19
23.40
24.25
24.36
23.42
21.40
18.54
15.28
12.13
9.44
7.33
5.75
4.47
3.28
2.09
0.89
-0.30
-1.50
-2.78
-4.25
-5.95
-7.84
-9.83
-11.83
-13.78
-15.72
-17.69
-19.87
-22.38
-25.37
-29.02
-33.39
-38.41
-43.71
-48.62
-52.24
-53.59
-51.90
-46.89
-38.84
-28.58
-17.28
-6.14
3.89
12.25
18.84
23.85
27.60
30.37
32.29
33.35
33.55
32.98
31.92
30.77
29.89
29.49
29.52
29.82
30.15
30.43
30.70
31.05
31.50
31.90
31.98
31.47
30.24
28.34
25.95
23.29
20.51
17.70
14.82
11.89
8.95
6.02
3.15
0.32
-2.51
-5.45
-8.60
-11.99
-15.57
-19.22
-22.73
-25.88
-28.56
-30.78
-32.76
-34.80
-37.26
-40.39
-44.21
-48.41
-52.31
-54.91
-55.17
-52.29
-46.01
-36.77
-25.63
-13.96
-3.06
6.25
13.70
19.54
24.17
27.93
30.91
32.99
34.03
33.97
32.97
31.39
29.66
28.13
27.01
26.31
25.98
25.89
25.99
26.18
26.40
26.48
26.24
25.49
24.14
22.33
20.38
18.73
17.67
17.21
17.01
16.48
15.11
12.73
9.59
6.27
3.36
1.14
-0.49
-1.97
-3.76
-6.11
-8.95
-12.05
-15.11
-18.00
-20.75
-23.46
-26.20
-28.97
-31.82
-34.86
-38.36
-42.50
-47.12
-51.55
-54.64
-55.11
-51.98
-45.04
-34.93
-22.98
-10.66
0.75
10.52
18.46
24.68
29.34
32.60
34.55
35.29
35.03
34.07
32.72
31.28
29.91
28.65
27.48
26.37
25.31
24.36
23.59
23.01
22.55
22.09
21.39
20.26
18.62
16.52
14.17
11.83
9.74
8.01
6.51
5.04
3.36
1.35
-0.93
-3.27
-5.42
-7.28
-8.83
-10.22
-11.66
-13.30
-15.29
-17.62
-20.20
-22.88
-25.48
-27.85
-29.89
-31.60
-33.07
-34.51
-36.21
-38.35
-40.88
-43.44
-45.32
-45.57
-43.31
-38.04
-29.84
-19.45
-8.01
3.14
12.87
20.52
25.88
29.20
30.90
31.43
31.13
30.24
28.90
27.33
25.73
24.32
23.24
22.51
22.00
21.54
20.99
20.25
19.30
18.21
17.01
15.66
14.13
12.39
10.45
8.38
6.23
4.06
1.89
-0.21
-2.17
-3.90
-5.32
-6.49
-7.57
-8.80
-10.41
-12.51
-15.06
-17.93
-20.92
-23.89
-26.82
-29.75
-32.82
-36.22
-40.09
-44.48
-49.23
-53.86
-57.61
-59.57
-58.81
-54.77
-47.36
-37.13
-25.12
-12.58
-0.73
9.60
17.97
24.34
28.94
32.08
34.08
35.16
35.52
35.29
34.62
33.71
32.72
31.76
30.87
30.03
29.19
28.36
27.61
27.05
26.73
26.60
26.46
26.05
25.12
23.52
21.27
18.51
15.44
12.24
9.03
5.83
2.65
-0.51
-3.59
-6.61
-9.55
-12.49
-15.48
-18.55
-21.59
-24.40
-26.80
-28.70
-30.22
-31.66
-33.44
-35.92
-39.29
-43.53
-48.27
-52.87
-56.40
-57.83
-56.35
-51.56
-43.70
-33.61
-22.45
-11.37
-1.22
7.59
14.99
21.07
25.90
29.54
32.09
33.68
34.53
34.88
34.96
34.83
34.53
34.00
33.22
32.20
30.93
29.43
27.71
25.83
23.88
22.05
20.45
19.12
17.97
16.79
15.35
13.52
11.24
8.65
5.92
3.26
0.83
-1.33
-3.28
-5.14
-7.08
-9.24
-11.68
-14.33
-17.09
-19.83
-22.51
-25.14
-27.82
-30.68
-33.87
-37.51
-41.58
-45.86
-49.78
-52.46
-52.88
-50.14
-43.90
-34.47
-22.83
-10.27
1.93
12.91
22.22
29.80
35.69
39.93
42.50
43.42
42.88
41.25
39.03
36.71
34.56
32.71
31.07
29.57
28.18
26.92
25.88
25.09
24.57
24.23
23.98
23.62
22.99
21.89
20.21
17.91
15.08
11.88
8.46
5.00
1.58
-1.71
-4.82
-7.70
-10.37
-12.88
-15.30
-17.67
-19.92
-21.96
-23.78
-25.49
-27.31
-29.49
-32.19
-35.45
-39.17
-43.17
-47.12
-50.55
-52.79
-53.10
-50.78
-45.54
-37.60
-27.75
-17.09
-6.67
2.70
10.68
17.22
22.50
26.59
29.50
31.16
31.59
31.01
29.81
28.53
27.61
27.28
27.48
27.94
28.39
28.64
28.71
28.74
28.82
28.90
28.74
27.98
26.40
23.98
20.88
17.40
13.80
10.26
6.84
3.59
0.57
-2.24
-4.89
-7.63
-10.64
-14.03
-17.68
-21.24
-24.36
-26.83
-28.76
-30.60
-32.89
-36.11
-40.34
-45.23
-49.99
-53.57
-54.90
-53.19
-48.09
-39.88
-29.34
-17.58
-5.75
5.18
14.62
22.33
28.39
32.99
36.37
38.63
39.79
39.87
38.94
37.17
34.89
32.47
30.29
28.63
27.63
27.19
27.18
27.26
27.17
26.67
25.67
24.15
22.27
20.17
17.96
15.72
13.48
11.19
8.87
6.54
4.23
2.02
-0.09
-2.21
-4.48
-7.10
-10.19
-13.75
-17.62
-21.51
-25.07
-28.05
-30.42
-32.34
-34.23
-36.48
-39.45
-43.24
-47.63
-52.05
-55.67
-57.52
-56.73
-52.81
-45.72
-35.98
-24.55
-12.64
-1.33
8.58
16.72
23.04
27.74
31.04
33.17
34.23
34.32
33.51
31.93
29.79
27.29
24.70
22.29
20.30
18.94
18.35
18.51
19.30
20.44
21.62
22.53
22.97
22.89
22.36
21.54
20.61
19.70
18.87
18.06
17.15
15.93
14.25
12.00
9.24
6.10
2.78
-0.52
-3.74
-6.84
-9.87
-12.88
-15.87
-18.81
-21.62
-24.26
-26.70
-29.00
-31.27
-33.64
-36.33
-39.50
-43.16
-47.11
-50.83
-53.57
-54.42
-52.61
-47.70
-39.79
-29.51
-17.96
-6.38
4.11
12.81
19.49
24.30
27.60
29.74
30.90
31.17
30.60
29.34
27.68
26.03
24.67
23.78
23.33
23.22
23.38
23.82
24.55
25.57
26.70
27.59
27.84
27.13
25.43
22.96
20.13
17.35
14.88
12.77
10.88
9.03
7.07
4.97
2.80
0.70
-1.21
-2.86
-4.26
-5.49
-6.70
-8.07
-9.83
-12.11
-14.90
-18.10
-21.42
-24.59
-27.40
-29.78
-31.83
-33.71
-35.64
-37.85
-40.55
-43.82
-47.49
-51.04
-53.62
-54.32
-52.37
-47.48
-39.97
-30.61
-20.41
-10.32
-1.01
7.07
13.72
18.86
22.54
24.92
26.25
26.83
26.93
26.74
26.36
25.84
25.20
24.45
23.61
22.71
21.80
20.93
20.23
19.80
19.68
19.77
19.81
19.50
18.62
17.10
15.04
12.66
10.22
7.83
5.55
3.33
1.12
-1.08
-3.25
-5.36
-7.41
-9.48
-11.73
-14.30
-17.26
-20.44
-23.55
-26.21
-28.26
-29.77
-31.12
-32.82
-35.30
-38.74
-42.93
-47.27
-50.90
-52.86
-52.35
-48.93
-42.63
-33.96
-23.76
-13.02
-2.61
6.76
14.61
20.71
25.05
27.80
29.31
29.95
30.00
29.63
28.86
27.71
26.25
24.60
22.91
21.38
20.22
19.66
19.87
20.92
22.69
24.82
26.73
27.95
28.20
27.51
26.24
24.76
23.35
22.03
20.63
18.91
16.73
14.14
11.30
8.41
5.61
2.85
0.04
-2.97
-6.25
-9.74
-13.35
-16.93
-20.45
-23.87
-27.24
-30.61
-34.02
-37.56
-41.34
-45.56
-50.35
-55.63
-60.94
-65.36
-67.71
-66.82
-62.02
-53.38
-41.75
-28.54
-15.27
-3.11
7.27
15.72
22.39
27.49
31.15
33.47
34.67
35.01
34.85
34.52
34.16
33.72
33.04
31.99
30.59
29.03
27.59
26.56
25.99
25.80
25.71
25.40
24.59
23.13
21.04
18.50
15.87
13.54
11.89
11.05
10.87
10.87
10.51
9.33
7.21
4.37
1.20
-1.98
-4.97
-7.80
-10.50
-13.01
-15.17
-16.90
-18.30
-19.71
-21.55
-24.07
-27.26
-30.78
-34.26
-37.51
-40.56
-43.51
-46.25
-48.22
-48.54
-46.29
-40.95
-32.65
-22.21
-10.84
0.27
10.26
18.72
25.57
30.85
34.63
36.94
37.79
37.30
35.75
33.55
31.15
28.93
27.05
25.52
24.20
22.93
21.77
20.83
20.33
20.36
20.80
21.36
21.68
21.43
20.50
18.97
17.05
14.90
12.62
10.23
7.66
4.89
1.92
-1.15
-4.14
-6.89
-9.30
-11.41
-13.35
-15.36
-17.59
-20.03
-22.51
-24.75
-26.53
-27.78
-28.67
-29.60
-31.07
-33.51
-37.14
-41.83
-47.10
-52.15
-55.95
-57.43
-55.75
-50.56
-42.15
-31.47
-19.90
-8.84
0.76
8.48
14.42
18.88
22.11
24.15
24.95
24.54
23.27
21.64
20.22
19.37
19.15
19.40
19.88
20.44
21.07
21.85
22.81
23.91
24.95
25.71
25.95
25.53
24.39
22.52
20.03
17.03
13.73
10.32
6.94
3.67
0.51
-2.63
-5.85
-9.25
-12.88
-16.70
-20.59
-24.33
-27.75
-30.72
-33.26
-35.54
-37.86
-40.57
-43.92
-47.90
-52.15
-55.96
-58.35
-58.38
-55.32
-49.00
-39.79
-28.60
-16.59
-4.88
5.70
14.69
21.97
27.68
32.03
35.24
37.47
38.84
39.45
39.46
38.99
38.24
37.35
36.45
35.65
34.98
34.43
33.90
33.26
32.34
31.04
29.41
27.56
25.72
24.01
22.40
20.75
18.80
16.45
13.64
10.46
7.10
3.72
0.48
-2.50
-5.15
-7.47
-9.62
-11.83
-14.32
-17.20
-20.35
-23.58
-26.60
-29.32
-31.80
-34.28
-37.07
-40.46
-44.56
-49.25
-54.02
-58.01
-60.10
-59.26
-54.85
-46.98
-36.42
-24.44
-12.37
-1.22
8.45
16.43
22.78
27.57
30.90
32.86
33.71
33.85
33.71
33.65
33.80
34.05
34.12
33.81
33.06
32.06
31.11
30.45
30.13
29.96
29.69
29.11
28.16
26.91
25.49
23.96
22.32
20.48
18.38
15.99
13.34
10.50
7.51
4.40
1.22
-2.03
-5.30
-8.57
-11.80
-15.01
-18.18
-21.33
-24.40
-27.31
-30.01
-32.50
-34.98
-37.77
-41.28
-45.63
-50.56
-55.26
-58.54
-59.22
-56.46
-50.15
-40.83
-29.58
-17.66
-6.21
3.99
12.55
19.40
24.66
28.55
31.27
32.98
33.82
33.85
33.19
31.96
30.34
28.56
26.85
25.43
24.44
23.91
23.78
23.90
24.03
23.94
23.41
22.30
20.59
18.34
15.75
13.04
10.39
7.90
5.57
3.34
1.14
-0.99
-2.95
-4.69
-6.18
-7.55
-8.92
-10.39
-11.93
-13.47
-14.98
-16.58
-18.49
-21.09
-24.71
-29.49
-35.36
-41.92
-48.47
-54.01
-57.44
-57.72
-54.24
-47.04
-36.85
-24.93
-12.67
-1.19
8.86
17.34
24.40
30.21
34.87
38.32
40.53
41.57
41.68
41.12
40.17
39.03
37.78
36.53
35.37
34.42
33.75
33.32
33.00
32.54
31.76
30.56
28.93
26.98
24.83
22.60
20.36
18.09
15.74
13.28
10.63
7.81
4.84
1.76
-1.35
-4.46
-7.60
-10.79
-14.10
-17.63
-21.45
-25.56
-29.95
-34.50
-39.06
-43.49
-47.71
-51.79
-55.82
-59.76
-63.28
-65.65
-65.94
-63.28
-57.28
-48.20
-36.96
-24.87
-13.13
-2.57
6.41
13.91
20.17
25.47
29.95
33.65
36.51
38.49
39.61
39.95
39.68
38.97
38.01
36.97
35.98
35.11
34.36
33.64
32.77
31.59
29.94
27.84
25.47
23.12
21.08
19.49
18.30
17.28
16.12
14.51
12.24
9.25
5.61
1.53
-2.76
-6.98
-10.97
-14.67
-18.10
-21.31
-24.36
-27.25
-29.96
-32.49
-34.93
-37.45
-40.35
-43.90
-48.22
-53.09
-57.89
-61.62
-63.11
-61.40
-56.02
-47.26
-36.00
-23.52
-11.12
0.27
10.08
18.22
24.82
30.02
33.97
36.77
38.49
39.22
39.07
38.25
36.97
35.47
33.97
32.67
31.67
30.96
30.45
30.07
29.71
29.37
29.03
28.61
27.96
26.89
25.22
22.90
20.07
16.99
13.91
10.99
8.21
5.42
2.46
-0.79
-4.33
-8.04
-11.75
-15.34
-18.71
-21.87
-24.86
-27.84
-31.02
-34.62
-38.78
-43.48
-48.44
-53.08
-56.63
-58.14
-56.82
-52.22
-44.41
-34.08
-22.31
-10.40
0.59
9.96
17.48
23.31
27.75
31.06
33.39
34.80
35.34
35.13
34.43
33.54
32.72
32.12
31.75
31.52
31.34
31.18
31.03
30.88
30.64
30.16
29.26
27.82
25.92
23.78
21.75
20.10
18.91
17.99
16.94
15.32
12.82
9.46
5.50
1.35
-2.56
-6.03
-9.12
-12.07
-15.16
-18.55
-22.19
-25.81
-29.04
-31.64
-33.61
-35.24
-36.99
-39.26
-42.29
-46.00
-50.05
-53.81
-56.50
-57.32
-55.61
-50.99
-43.54
-33.90
-23.02
-12.00
-1.77
7.11
14.43
20.18
24.53
27.63
29.63
30.73
31.08
30.82
30.06
28.92
27.54
26.17
25.10
24.50
24.44
24.77
25.20
25.46
25.34
24.77
23.80
22.47
20.85
18.98
16.86
14.52
11.98
9.30
6.49
3.59
0.64
-2.34
-5.23
-7.89
-10.11
-11.81
-13.03
-14.06
-15.30
-17.12
-19.64
-22.72
-25.99
-29.03
-31.60
-33.67
-35.53
-37.56
-40.15
-43.47
-47.39
-51.34
-54.40
-55.51
-53.71
-48.50
-40.01
-29.09
-16.97
-4.99
5.76
14.64
21.50
26.53
30.05
32.36
33.61
33.90
33.34
32.09
30.50
28.87
27.50
26.50
25.85
25.48
25.33
25.41
25.66
25.96
26.06
25.72
24.80
23.33
21.53
19.59
17.67
15.79
13.85
11.78
9.58
7.31
5.05
2.82
0.56
-1.87
-4.60
-7.67
-11.10
-14.80
-18.70
-22.73
-26.82
-30.87
-34.78
-38.45
-41.82
-44.96
-48.05
-51.32
-54.88
-58.61
-62.02
-64.27
-64.39
-61.53
-55.27
-45.89
-34.29
-21.80
-9.69
1.07
10.03
17.16
22.63
26.67
29.42
30.97
31.49
31.23
30.56
29.82
29.21
28.79
28.51
28.28
28.05
27.83
27.66
27.52
27.34
27.03
26.52
25.76
24.72
23.40
21.81
20.02
18.12
16.25
14.48
12.76
10.95
8.85
6.32
3.40
0.29
-2.78
-5.55
-8.01
-10.27
-12.60
-15.28
-18.41
-21.88
-25.46
-28.76
-31.60
-33.96
-36.10
-38.36
-41.12
-44.54
-48.46
-52.35
-55.34
-56.40
-54.57
-49.30
-40.67
-29.44
-16.80
-4.10
7.50
17.34
25.17
31.04
35.09
37.46
38.30
37.86
36.53
34.82
33.19
31.92
31.02
30.29
29.42
28.23
26.73
25.12
23.70
22.68
22.11
21.87
21.71
21.45
20.94
20.15
19.09
17.72
15.99
13.83
11.20
8.18
4.96
1.74
-1.23
-3.84
-6.10
-8.20
-10.42
-12.98
-16.03
-19.49
-23.14
-26.64
-29.71
-32.24
-34.33
-36.29
-38.50
-41.27
-44.67
-48.34
-51.54
-53.23
-52.36
-48.26
-40.89
-30.88
-19.37
-7.64
3.23
12.60
20.23
26.18
30.59
33.60
35.30
35.84
35.48
34.54
33.41
32.37
31.56
31.00
30.62
30.37
30.16
29.90
29.54
29.01
28.21
27.03
25.35
23.09
20.24
16.85
13.11
9.23
5.51
2.14
-0.73
-3.09
-5.07
-6.84
-8.62
-10.57
-12.80
-15.29
-17.90
-20.49
-22.94
-25.31
-27.76
-30.56
-33.97
-38.16
-43.04
-48.20
-52.87
-56.02
-56.62
-53.87
-47.57
-38.14
-26.57
-14.13
-2.03
8.79
17.85
24.97
30.26
33.94
36.23
37.35
37.46
36.68
35.20
33.24
31.09
29.04
27.29
25.98
25.12
24.72
24.77
25.20
25.89
26.59
27.02
27.01
26.47
25.57
24.51
23.51
22.57
21.53
20.10
18.09
15.47
12.46
9.33
6.35
3.55
0.77
-2.19
-5.48
-9.07
-12.76
-16.34
-19.71
-22.90
-26.09
-29.46
-33.16
-37.21
-41.58
-46.13
-50.53
-54.22
-56.43
-56.35
-53.31
-47.13
-38.16
-27.31
-15.87
-5.02
4.33
11.82
17.51
21.69
24.68
26.59
27.37
26.94
25.37
23.05
20.55
18.50
17.31
17.07
17.55
18.33
19.02
19.38
19.30
18.81
17.90
16.62
14.98
13.07
11.04
9.01
7.07
5.20
3.34
1.42
-0.58
-2.64
-4.73
-6.86
-9.04
-11.31
-13.72
-16.23
-18.77
-21.23
-23.50
-25.61
-27.71
-30.05
-32.92
-36.51
-40.78
-45.46
-50.06
-53.85
-55.99
-55.61
-52.08
-45.15
-35.26
-23.43
-11.09
0.40
10.06
17.53
22.96
26.80
29.40
30.97
31.57
31.30
30.34
29.07
27.93
27.24
27.12
27.43
27.90
28.23
28.29
28.07
27.76
27.48
27.26
26.94
26.24
24.87
22.69
19.74
16.24
12.55
9.03
5.89
3.13
0.50
-2.41
-5.97
-10.36
-15.45
-20.82
-25.91
-30.26
-33.69
-36.36
-38.71
-41.21
-44.26
-48.03
-52.35
-56.69
-60.25
-62.02
-61.02
-56.62
-48.73
-37.90
-25.24
-12.09
0.36
11.30
20.39
27.63
33.18
37.25
39.99
41.56
42.16
42.07
41.49
40.63
39.55
38.21
36.64
34.92
33.28
32.01
31.29
31.15
31.38
31.61
31.50
30.87
29.72
28.18
26.38
24.34
21.99
19.23
16.05
12.57
8.99
5.46
2.06
-1.26
-4.59
-8.08
-11.75
-15.60
-19.49
-23.22
-26.58
-29.42
-31.74
-33.78
-35.97
-38.75
-42.47
-47.23
-52.73
-58.32
-62.92
-65.34
-64.46
-59.61
-50.84
-38.99
-25.47
-11.89
0.41
10.64
18.65
24.69
29.22
32.62
35.12
36.79
37.69
37.89
37.50
36.62
35.37
33.91
32.39
31.00
29.91
29.23
28.91
28.80
28.65
28.21
27.37
26.09
24.48
22.66
20.70
18.61
16.34
13.84
11.10
8.18
5.19
2.22
-0.67
-3.53
-6.47
-9.70
-13.31
-17.33
-21.61
-25.91
-29.96
-33.65
-37.00
-40.19
-43.45
-46.98
-50.89
-55.11
-59.32
-62.90
-65.01
-64.65
-61.00
-53.71
-43.11
-30.21
-16.46
-3.27
8.27
17.67
24.89
30.21
33.93
36.35
37.66
38.05
37.76
37.07
36.26
35.54
35.03
34.71
34.57
34.58
34.73
35.04
35.43
35.75
35.76
35.23
34.03
32.23
30.07
27.73
25.36
22.90
20.22
17.30
14.20
11.07
8.10
5.32
2.60
-0.28
-3.52
-7.24
-11.43
-15.94
-20.64
-25.34
-29.87
-34.12
-38.00
-41.59
-45.02
-48.56
-52.46
-56.74
-61.13
-64.90
-67.02
-66.36
-62.09
-54.01
-42.60
-28.99
-14.66
-0.97
10.99
20.64
27.85
32.86
36.10
38.04
39.03
39.30
38.96
38.12
36.91
35.55
34.25
33.07
32.02
31.05
30.18
29.53
29.29
29.56
30.18
30.81
31.01
30.49
29.21
27.39
25.30
23.15
20.99
18.77
16.34
13.63
10.68
7.61
4.58
1.76
-0.83
-3.32
-5.98
-9.09
-12.86
-17.22
-21.90
-26.51
-30.70
-34.33
-37.46
-40.39
-43.49
-47.09
-51.38
-56.21
-61.06
-64.96
-66.72
-65.15
-59.48
-49.63
-36.37
-21.18
-5.87
7.92
19.11
27.35
32.97
36.66
39.08
40.57
41.14
40.68
39.20
37.02
34.72
32.87
31.79
31.39
31.29
31.12
30.65
30.02
29.53
29.41
29.63
29.89
29.70
28.71
26.86
24.43
21.88
19.68
18.07
17.01
16.19
15.17
13.67
11.64
9.28
6.85
4.53
2.26
-0.21
-3.20
-6.85
-11.06
-15.52
-19.77
-23.48
-26.53
-29.04
-31.21
-33.35
-35.70
-38.50
-41.96
-46.18
-50.98
-55.82
-59.75
-61.63
-60.40
-55.49
-47.06
-36.07
-23.90
-12.01
-1.56
6.87
13.19
17.66
20.60
22.30
22.94
22.65
21.58
19.95
18.09
16.28
14.75
13.64
12.91
12.51
12.37
12.48
12.91
13.67
14.65
15.62
16.23
16.20
15.47
14.11
12.39
10.52
8.60
6.66
4.65
2.61
0.52
-1.67
-4.11
-6.97
-10.31
-13.98
-17.64
-20.90
-23.50
-25.49
-27.15
-28.87
-31.04
-33.92
-37.65
-42.15
-47.13
-51.89
-55.45
-56.62
-54.44
-48.44
-38.93
-26.88
-13.74
-0.98
10.29
19.47
26.45
31.47
34.87
36.94
37.86
37.75
36.72
34.97
32.76
30.43
28.29
26.57
25.35
24.61
24.21
24.06
24.06
24.21
24.48
24.79
24.97
24.77
23.94
22.36
20.08
17.37
14.49
11.70
9.09
6.56
3.93
1.01
-2.36
-6.20
-10.47
-15.03
-19.70
-24.23
-28.39
-31.98
-34.98
-37.62
-40.36
-43.78
-48.30
-53.93
-60.12
-65.71
-69.19
-69.19
-64.88
-56.27
-44.22
-30.14
-15.62
-2.02
9.71
19.18
26.30
31.29
34.49
36.31
37.16
37.38
37.25
36.95
36.57
36.13
35.61
34.98
34.27
33.62
33.23
33.33
33.98
35.07
36.26
37.13
37.32
36.60
34.90
32.27
28.86
24.84
20.42
15.82
11.24
6.77
2.38
-1.99
-6.37
-10.72
-15.00
-19.14
-23.14
-26.94
-30.50
-33.66
-36.35
-38.61
-40.64
-42.83
-45.59
-49.15
-53.41
-57.80
-61.43
-63.16
-61.98
-57.21
-48.81
-37.42
-24.24
-10.79
1.58
11.89
19.67
24.97
28.19
29.82
30.39
30.26
29.69
28.86
27.86
26.81
25.85
25.10
24.62
24.43
24.43
24.50
24.54
24.53
24.58
24.78
25.21
25.81
26.35
26.55
26.07
24.70
22.40
19.36
15.89
12.27
8.69
5.15
1.48
-2.52
-6.90
-11.52
-16.11
-20.38
-24.19
-27.54
-30.56
-33.44
-36.31
-39.32
-42.61
-46.23
-49.99
-53.34
-55.33
-54.94
-51.35
-44.29
-34.14
-21.85
-8.59
4.51
16.55
26.90
35.17
41.24
45.16
47.17
47.64
47.02
45.78
44.40
43.24
42.58
42.47
42.81
43.33
43.67
43.51
42.70
41.21
39.23
37.06
34.99
33.24
31.82
30.62
29.39
27.88
25.91
23.39
20.20
16.29
11.62
6.31
0.64
-5.00
-10.23
-14.77
-18.64
-22.07
-25.43
-29.04
-33.02
-37.20
-41.23
-44.76
-47.64
-50.01
-52.29
-55.01
-58.49
-62.65
-66.93
-70.33
-71.75
-70.18
-65.03
-56.26
-44.45
-30.70
-16.40
-2.94
8.66
17.86
24.65
29.34
32.40
34.19
34.98
34.94
34.28
33.23
32.08
31.05
30.26
29.71
29.33
29.05
28.80
28.65
28.70
29.06
29.75
30.61
31.35
31.61
31.12
29.74
27.58
24.87
21.90
18.88
15.83
12.73
9.45
5.97
2.32
-1.43
-5.22
-9.08
-13.10
-17.43
-22.12
-27.06
-31.93
-36.41
-40.14
-43.07
-45.41
-47.58
-50.05
-53.13
-56.78
-60.57
-63.65
-65.02
-63.67
-59.01
-50.95
-40.09
-27.48
-14.37
-1.95
8.92
17.79
24.49
29.06
31.72
32.81
32.72
31.89
30.68
29.29
27.82
26.36
25.04
24.09
23.68
23.90
24.62
25.58
26.49
27.20
27.68
27.99
28.18
28.19
27.84
26.95
25.42
23.26
20.58
17.51
14.15
10.60
6.92
3.29
-0.16
-3.39
-6.50
-9.72
-13.26
-17.22
-21.47
-25.71
-29.68
-33.20
-36.29
-39.11
-41.94
-45.06
-48.71
-52.97
-57.61
-61.99
-65.04
-65.53
-62.45
-55.40
-44.80
-31.91
-18.30
-5.46
5.61
14.55
21.45
26.66
30.48
33.14
34.75
35.43
35.33
34.65
33.56
32.17
30.58
28.87
27.25
25.95
25.26
25.38
26.33
27.91
29.69
31.17
31.92
31.68
30.44
28.40
25.87
23.09
20.24
17.31
14.19
10.73
6.83
2.53
-1.96
-6.35
-10.33
-13.70
-16.52
-19.06
-21.70
-24.76
-28.35
-32.32
-36.34
-40.11
-43.50
-46.61
-49.69
-53.12
-57.20
-62.07
-67.54
-73.03
-77.55
-79.84
-78.71
-73.41
-63.91
-50.98
-36.02
-20.64
-6.27
6.12
16.16
23.89
29.71
34.05
37.28
39.62
41.19
42.03
42.28
42.13
41.83
41.61
41.56
41.69
41.96
42.41
43.10
44.18
45.71
47.58
49.45
50.86
51.30
50.44
48.23
44.87
40.75
36.30
31.84
27.48
23.17
18.78
14.24
9.54
4.77
0.05
-4.49
-8.74
-12.69
-16.38
-19.93
-23.51
-27.21
-30.97
-34.57
-37.69
-40.10
-41.74
-42.87
-43.97
-45.59
-48.16
-51.78
-56.16
-60.59
-64.00
-65.17
-63.05
-57.10
-47.49
-35.06
-21.17
-7.27
5.43
16.16
24.64
30.95
35.33
37.99
39.17
39.00
37.73
35.69
33.31
31.07
29.35
28.34
28.03
28.25
28.80
29.56
30.48
31.56
32.77
33.91
34.74
35.03
34.61
33.44
31.65
29.44
26.98
24.34
21.52
18.39
14.88
10.95
6.76
2.52
-1.53
-5.27
-8.74
-12.14
-15.65
-19.40
-23.39
-27.45
-31.39
-35.05
-38.34
-41.30
-44.07
-46.88
-49.97
-53.50
-57.38
-61.18
-64.14
-65.23
-63.44
-58.08
-49.13
-37.21
-23.58
-9.74
2.95
13.62
22.02
28.38
33.18
36.80
39.45
41.15
41.90
41.81
41.16
40.27
39.42
38.73
38.21
37.85
37.65
37.62
37.70
37.77
37.61
37.05
36.00
34.54
32.82
30.96
28.99
26.78
24.12
20.85
16.93
12.45
7.62
2.64
-2.38
-7.38
-12.36
-17.33
-22.26
-27.12
-31.87
-36.51
-41.06
-45.48
-49.62
-53.27
-56.26
-58.60
-60.56
-62.55
-64.91
-67.54
-69.80
-70.59
-68.68
-63.20
-53.99
-41.75
-27.74
-13.46
-0.17
11.32
20.76
28.20
33.92
38.15
41.07
42.82
43.56
43.55
43.06
42.38
41.69
41.07
40.53
40.06
39.71
39.52
39.48
39.45
39.24
38.69
37.70
36.33
34.66
32.74
30.53
27.94
24.88
21.31
17.32
13.02
8.48
3.69
-1.40
-6.87
-12.68
-18.69
-24.59
-30.08
-34.88
-38.81
-41.85
-44.08
-45.74
-47.15
-48.74
-50.99
-54.23
-58.42
-62.98
-66.74
-68.24
-66.23
-60.08
-50.06
-37.21
-23.05
-9.10
3.48
14.03
22.40
28.81
33.64
37.29
40.03
41.99
43.23
43.75
43.62
43.04
42.18
41.17
40.05
38.83
37.51
36.22
35.06
34.13
33.34
32.43
31.04
28.83
25.62
21.45
16.61
11.53
6.60
2.09
-1.96
-5.78
-9.71
-14.14
-19.27
-24.98
-30.90
-36.40
-40.86
-43.92
-45.60
-46.33
-46.81
-47.75
-49.69
-52.72
-56.43
-59.93
-61.94
-61.16
-56.60
-47.94
-35.67
-21.05
-5.72
8.72
21.12
30.93
38.18
43.26
46.68
48.85
50.01
50.29
49.74
48.49
46.68
44.61
42.55
40.75
39.32
38.25
37.42
36.73
36.13
35.59
35.08
34.46
33.48
31.82
29.25
25.73
21.45
16.76
11.97
7.30
2.67
-2.10
-7.26
-12.94
-19.08
-25.45
-31.64
-37.18
-41.63
-44.71
-46.47
-47.26
-47.69
-48.43
-50.07
-52.94
-56.99
-61.67
-65.97
-68.45
-67.69
-62.57
-52.80
-39.07
-22.94
-6.39
8.76
21.33
30.89
37.61
41.92
44.28
45.07
44.57
43.14
41.17
39.10
37.32
36.07
35.39
35.20
35.32
35.55
35.79
35.98
36.11
36.16
36.03
35.53
34.45
32.59
29.93
26.59
22.83
18.97
15.18
11.50
7.77
3.74
-0.78
-5.92
-11.55
-17.44
-23.24
-28.63
-33.36
-37.35
-40.63
-43.40
-45.92
-48.50
-51.42
-54.84
-58.65
-62.29
-64.78
-64.89
-61.59
-54.36
-43.51
-30.13
-15.68
-1.66
10.81
21.10
29.01
34.61
38.09
39.70
39.75
38.61
36.72
34.50
32.37
30.59
29.34
28.61
28.34
28.38
28.62
29.00
29.49
30.09
30.76
31.39
31.81
31.87
31.44
30.48
29.01
27.03
24.54
21.54
18.01
14.05
9.86
5.62
1.47
-2.65
-6.97
-11.74
-17.08
-22.85
-28.74
-34.39
-39.52
-44.01
-47.87
-51.21
-54.22
-57.16
-60.43
-64.32
-68.85
-73.44
-76.88
-77.60
-74.23
-66.13
-53.71
-38.40
-22.10
-6.69
6.53
16.99
24.74
30.17
33.78
35.95
36.96
37.03
36.43
35.46
34.46
33.68
33.23
33.09
33.11
33.16
33.18
33.19
33.23
33.38
33.57
33.72
33.70
33.41
32.88
32.18
31.43
30.68
29.81
28.59
26.76
24.10
20.57
16.31
11.58
6.64
1.65
-3.32
-8.28
-13.22
-18.08
-22.77
-27.18
-31.25
-34.95
-38.31
-41.40
-44.37
-47.53
-51.23
-55.75
-61.11
-66.77
-71.60
-74.15
-73.05
-67.52
-57.72
-44.68
-30.00
-15.33
-2.01
9.26
18.23
25.04
29.90
33.05
34.66
34.95
34.18
32.71
30.92
29.16
27.72
26.72
26.21
26.14
26.44
27.02
27.77
28.60
29.34
29.89
30.14
30.02
29.50
28.53
27.06
25.00
22.33
19.07
15.35
11.37
7.34
3.44
-0.25
-3.74
-7.12
-10.48
-13.90
-17.49
-21.28
-25.28
-29.39
-33.41
-37.16
-40.49
-43.46
-46.33
-49.49
-53.26
-57.69
-62.39
-66.46
-68.71
-67.89
-63.10
-54.11
-41.51
-26.58
-10.98
3.69
16.32
26.37
33.88
39.13
42.52
44.32
44.70
43.89
42.10
39.69
37.10
34.74
32.91
31.77
31.32
31.44
31.94
32.63
33.34
33.96
34.32
34.24
33.47
31.87
29.42
26.25
22.68
18.98
15.32
11.69
8.09
4.54
1.20
-1.75
-4.24
-6.47
-8.87
-11.96
-16.13
-21.37
-27.32
-33.39
-38.98
-43.72
-47.50
-50.48
-52.97
-55.39
-58.11
-61.44
-65.45
-69.74
-73.40
-75.13
-73.59
-67.87
-57.92
-44.64
-29.64
-14.65
-1.07
10.31
19.40
26.45
31.81
35.71
38.33
39.79
40.25
39.97
39.22
38.27
37.27
36.38
35.70
35.34
35.37
35.85
36.76
37.99
39.34
40.60
41.49
41.75
41.25
40.02
38.21
36.03
33.62
30.96
27.86
24.11
19.59
14.37
8.75
3.15
-1.97
-6.36
-10.01
-13.18
-16.25
-19.63
-23.53
-27.87
-32.42
-36.83
-40.83
-44.41
-47.74
-51.14
-54.96
-59.40
-64.39
-69.46
-73.69
-75.84
-74.68
-69.40
-59.93
-47.12
-32.48
-17.74
-4.35
6.84
15.58
22.09
26.75
29.90
31.84
32.76
32.84
32.28
31.29
30.13
28.97
27.98
27.19
26.57
26.05
25.61
25.35
25.44
26.05
27.21
28.72
30.20
31.24
31.49
30.79
29.18
26.83
23.98
20.87
17.75
14.73
11.80
8.83
5.58
1.89
-2.31
-6.90
-11.67
-16.37
-20.84
-24.99
-28.91
-32.70
-36.63
-40.93
-45.87
-51.43
-57.22
-62.31
-65.40
-65.16
-60.71
-51.94
-39.59
-25.11
-10.14
3.87
15.98
25.74
33.10
38.16
41.05
42.01
41.40
39.75
37.68
35.72
34.18
33.11
32.36
31.71
31.02
30.25
29.52
29.02
28.88
29.18
29.82
30.59
31.20
31.35
30.83
29.53
27.47
24.77
21.59
18.09
14.41
10.63
6.78
2.84
-1.25
-5.55
-10.11
-14.95
-20.03
-25.32
-30.70
-36.02
-41.05
-45.58
-49.55
-53.08
-56.47
-60.17
-64.49
-69.41
-74.42
-78.51
-80.33
-78.62
-72.55
-62.11
-48.12
-32.08
-15.71
-0.54
12.44
22.83
30.74
36.47
40.36
42.71
43.83
44.05
43.79
43.40
43.12
43.00
42.87
42.54
41.81
40.67
39.30
37.95
36.88
36.20
35.83
35.46
34.75
33.40
31.31
28.59
25.38
21.81
17.97
13.89
9.66
5.46
1.45
-2.29
-5.89
-9.57
-13.59
-18.07
-22.96
-27.99
-32.77
-36.98
-40.46
-43.23
-45.56
-47.89
-50.66
-54.24
-58.64
-63.41
-67.65
-70.10
-69.55
-65.18
-56.83
-45.16
-31.43
-17.07
-3.37
8.83
19.14
27.48
33.96
38.63
41.60
43.00
43.04
41.94
39.93
37.22
34.14
31.06
28.47
26.81
26.28
26.83
28.16
29.84
31.53
33.00
34.09
34.67
34.56
33.63
31.83
29.25
26.09
22.57
18.83
14.87
10.57
5.84
0.65
-4.91
-10.64
-16.38
-22.01
-27.49
-32.74
-37.70
-42.29
-46.43
-50.08
-53.35
-56.53
-59.96
-63.90
-68.25
-72.41
-75.29
-75.63
-72.33
-64.91
-53.65
-39.58
-24.16
-8.89
5.04
16.90
26.40
33.62
38.80
42.22
44.13
44.75
44.34
43.18
41.61
39.97
38.55
37.56
37.03
36.94
37.21
37.75
38.46
39.17
39.69
39.73
38.99
37.29
34.56
30.95
26.74
22.18
17.51
12.81
8.17
3.69
-0.43
-3.95
-6.78
-9.00
-10.96
-13.08
-15.71
-18.95
-22.67
-26.57
-30.39
-33.98
-37.31
-40.43
-43.50
-46.72
-50.29
-54.28
-58.40
-61.93
-63.70
-62.40
-57.10
-47.62
-34.70
-19.84
-4.82
8.90
20.46
29.68
36.86
42.38
46.48
49.16
50.38
50.20
48.94
47.11
45.18
43.48
41.97
40.49
38.87
37.14
35.53
34.35
33.70
33.40
33.01
32.04
30.17
27.35
23.84
19.96
16.09
12.40
8.93
5.61
2.34
-1.01
-4.45
-8.00
-11.61
-15.22
-18.77
-22.23
-25.59
-28.79
-31.75
-34.35
-36.51
-38.23
-39.67
-41.16
-43.05
-45.67
-49.06
-52.92
-56.53
-58.78
-58.49
-54.72
-47.10
-36.03
-22.59
-8.26
5.53
17.69
27.69
35.36
40.88
44.43
46.21
46.38
45.15
42.78
39.67
36.28
33.09
30.45
28.54
27.32
26.58
26.05
25.56
25.03
24.47
23.87
23.16
22.22
20.96
19.39
17.64
15.88
14.14
12.32
10.23
7.68
4.67
1.39
-1.88
-4.94
-7.76
-10.49
-13.34
-16.49
-19.95
-23.61
-27.28
-30.84
-34.23
-37.55
-40.94
-44.59
-48.71
-53.39
-58.47
-63.34
-66.92
-67.83
-64.86
-57.41
-45.82
-31.36
-15.81
-0.84
12.37
23.37
32.26
39.33
44.75
48.54
50.63
51.03
49.94
47.75
44.90
41.82
38.77
35.89
33.25
30.88
28.91
27.48
26.66
26.41
26.51
26.62
26.35
25.47
23.83
21.56
18.88
16.03
13.25
10.61
8.10
5.62
3.08
0.39
-2.42
-5.25
-8.02
-10.71
-13.36
-16.03
-18.68
-21.21
-23.53
-25.65
-27.77
-30.18
-33.27
-37.34
-42.57
-48.91
-55.99
-62.95
-68.52
-71.17
-69.55
-63.04
-51.98
-37.71
-22.14
-7.18
5.78
16.09
23.83
29.39
33.27
35.87
37.39
37.93
37.61
36.63
35.27
33.84
32.59
31.66
31.06
30.68
30.42
30.21
30.02
29.75
29.27
28.35
26.80
24.57
21.72
18.39
14.78
11.02
7.20
3.40
-0.31
-3.82
-7.07
-10.02
-12.71
-15.23
-17.73
-20.31
-23.03
-25.92
-28.91
-31.89
-34.76
-37.51
-40.25
-43.24
-46.79
-51.14
-56.26
-61.77
-66.80
-70.16
-70.61
-67.19
-59.65
-48.51
-34.91
-20.37
-6.25
6.49
17.37
26.29
33.35
38.66
42.35
44.52
45.33
44.99
43.71
41.78
39.47
37.11
34.98
33.29
32.16
31.55
31.33
31.33
31.37
31.22
30.66
29.45
27.44
24.66
21.29
17.74
14.34
11.28
8.53
5.85
2.95
-0.42
-4.28
-8.51
-12.84
-17.00
-20.81
-24.24
-27.41
-30.49
-33.62
-36.75
-39.70
-42.27
-44.38
-46.28
-48.42
-51.45
-55.76
-61.25
-67.17
-72.22
-74.83
-73.67
-68.06
-58.14
-44.93
-29.94
-14.78
-0.76
11.33
21.21
29.01
35.00
39.44
42.59
44.62
45.69
45.99
45.68
44.87
43.68
42.25
40.75
39.40
38.43
37.96
37.97
38.27
38.52
38.33
37.37
35.42
32.49
28.80
24.69
20.55
16.70
13.29
10.25
7.40
4.53
1.54
-1.58
-4.77
-7.98
-11.29
-14.85
-18.77
-23.00
-27.34
-31.41
-34.95
-37.87
-40.32
-42.65
-45.25
-48.50
-52.68
-57.84
-63.65
-69.28
-73.38
-74.35
-70.84
-62.27
-49.15
-32.97
-15.78
0.47
14.43
25.58
33.97
39.98
44.03
46.41
47.33
46.99
45.69
43.80
41.72
39.81
38.36
37.50
37.23
37.48
38.11
38.94
39.79
40.44
40.75
40.52
39.66
38.13
35.96
33.20
29.85
25.95
21.53
16.72
11.74
6.85
2.21
-2.12
-6.32
-10.67
-15.39
-20.54
-25.91
-31.18
-36.03
-40.24
-43.81
-46.95
-49.95
-53.20
-57.11
-61.94
-67.66
-73.67
-78.76
-81.29
-79.67
-72.90
-61.10
-45.52
-28.14
-11.00
4.39
17.35
27.83
36.10
42.42
46.94
49.73
50.96
50.91
49.98
48.54
46.89
45.22
43.70
42.47
41.64
41.27
41.31
41.62
42.01
42.26
42.10
41.35
39.85
37.55
34.51
30.92
27.02
23.06
19.21
15.60
12.24
9.06
5.93
2.71
-0.72
-4.46
-8.50
-12.78
-17.16
-21.45
-25.44
-28.95
-31.94
-34.54
-37.09
-40.08
-43.96
-49.04
-55.25
-62.08
-68.48
-73.06
-74.32
-71.07
-62.75
-49.76
-33.40
-15.63
1.51
16.34
28.03
36.56
42.48
46.58
49.46
51.41
52.46
52.52
51.59
49.77
47.34
44.64
41.95
39.52
37.54
36.09
35.23
34.89
34.95
35.14
35.17
34.71
33.53
31.51
28.69
25.23
21.30
17.09
12.77
8.43
4.19
0.09
-3.87
-7.79
-11.81
-15.97
-20.23
-24.40
-28.25
-31.52
-34.18
-36.32
-38.14
-39.92
-42.00
-44.72
-48.40
-53.14
-58.62
-63.98
-67.89
-68.88
-65.80
-58.19
-46.49
-31.93
-16.23
-1.07
12.21
22.84
30.63
35.81
38.76
39.91
39.64
38.31
36.35
34.22
32.37
31.10
30.51
30.40
30.51
30.56
30.44
30.21
30.06
30.14
30.47
30.89
31.00
30.43
28.82
26.11
22.45
18.21
13.80
9.53
5.59
1.95
-1.49
-4.98
-8.80
-13.11
-17.97
-23.23
-28.57
-33.60
-38.03
-41.78
-45.05
-48.23
-51.77
-55.95
-60.73
-65.63
-69.76
-72.01
-71.22
-66.54
-57.69
-45.14
-30.03
-13.92
1.57
15.12
25.98
33.97
39.39
42.71
44.48
45.05
44.76
43.80
42.37
40.68
38.91
37.21
35.62
34.17
32.86
31.70
30.73
30.04
29.58
29.25
28.87
28.17
26.94
25.02
22.37
19.02
15.09
10.75
6.23
1.79
-2.39
-6.21
-9.74
-13.15
-16.63
-20.36
-24.37
-28.61
-32.89
-37.00
-40.72
-43.90
-46.58
-48.94
-51.37
-54.29
-57.95
-62.31
-66.80
-70.39
-71.72
-69.57
-63.15
-52.50
-38.47
-22.57
-6.56
8.03
20.20
29.51
36.06
40.20
42.32
42.79
41.89
39.98
37.45
34.74
32.24
30.19
28.67
27.59
26.81
26.17
25.63
25.23
25.06
25.19
25.61
26.21
26.79
27.13
26.94
26.04
24.31
21.76
18.56
14.95
11.21
7.57
4.09
0.64
-2.99
-7.04
-11.62
-16.65
-21.93
-27.22
-32.35
-37.28
-42.07
-46.88
-51.83
-56.93
-62.04
-66.78
-70.52
-72.42
-71.58
-67.27
-59.22
-47.81
-34.06
-19.37
-5.17
7.45
17.90
26.10
32.32
36.87
40.03
41.97
42.85
42.84
42.18
41.13
39.94
38.82
37.90
37.25
36.87
36.73
36.73
36.77
36.74
36.53
36.03
35.14
33.73
31.74
29.22
26.25
23.00
19.55
15.99
12.26
8.35
4.25
0.01
-4.31
-8.69
-13.21
-17.96
-22.96
-28.12
-33.20
-37.93
-42.05
-45.57
-48.67
-51.63
-54.82
-58.49
-62.75
-67.39
-71.89
-75.31
-76.48
-74.24
-67.80
-57.15
-43.04
-26.93
-10.54
4.54
17.24
27.08
34.13
38.81
41.66
43.15
43.58
43.13
41.88
39.98
37.69
35.35
33.26
31.63
30.51
29.91
29.77
30.10
30.87
31.99
33.20
34.19
34.62
34.27
33.02
30.96
28.24
25.01
21.39
17.35
12.90
8.05
2.91
-2.25
-7.18
-11.69
-15.77
-19.58
-23.32
-27.12
-30.95
-34.66
-38.08
-41.14
-43.94
-46.75
-49.93
-53.79
-58.37
-63.23
-67.40
-69.53
-68.24
-62.59
-52.49
-38.73
-22.84
-6.55
8.59
21.52
31.69
38.93
43.39
45.42
45.53
44.34
42.49
40.42
38.35
36.32
34.32
32.43
30.88
29.98
29.94
30.77
32.23
33.90
35.39
36.36
36.64
36.16
34.90
32.85
30.04
26.54
22.52
18.26
13.98
9.86
5.91
2.07
-1.78
-5.72
-9.75
-13.79
-17.70
-21.36
-24.67
-27.54
-29.99
-32.12
-34.16
-36.44
-39.41
-43.45
-48.74
-55.06
-61.62
-67.13
-69.98
-68.73
-62.62
-51.83
-37.55
-21.59
-5.79
8.44
20.36
29.85
37.05
42.18
45.39
46.81
46.62
45.15
42.79
40.00
37.22
34.82
33.12
32.28
32.33
33.08
34.22
35.36
36.22
36.57
36.27
35.23
33.39
30.78
27.54
23.95
20.27
16.71
13.31
9.97
6.49
2.69
-1.51
-6.10
-11.00
-16.08
-21.10
-25.87
-30.10
-33.59
-36.27
-38.27
-39.92
-41.72
-44.16
-47.57
-51.99
-57.00
-61.77
-65.10
-65.74
-62.71
-55.62
-44.89
-31.61
-17.30
-3.51
8.62
18.43
25.78
30.86
33.96
35.36
35.33
34.22
32.46
30.50
28.70
27.28
26.16
25.16
24.15
23.13
22.30
21.89
22.02
22.55
23.18
23.51
23.27
22.31
20.66
18.41
15.66
12.51
9.06
5.48
1.95
-1.43
-4.59
-7.61
-10.63
-13.72
-16.88
-19.97
-22.81
-25.20
-27.10
-28.64
-30.14
-31.97
-34.51
-37.97
-42.32
-47.14
-51.66
-54.73
-55.13
-51.89
-44.66
-33.85
-20.64
-6.62
6.56
17.65
25.97
31.40
34.25
34.96
34.05
31.94
29.05
25.80
22.63
20.01
18.19
17.29
17.16
17.47
17.92
18.30
18.62
19.03
19.70
20.64
21.72
22.69
23.26
23.24
22.50
20.97
18.64
15.64
12.21
8.70
5.41
2.50
-0.18
-2.99
-6.31
-10.34
-15.02
-20.05
-25.06
-29.80
-34.21
-38.36
-42.45
-46.70
-51.29
-56.29
-61.59
-66.71
-70.81
-72.79
-71.63
-66.66
-57.89
-45.94
-32.01
-17.51
-3.76
8.26
17.96
25.20
30.10
32.99
34.25
34.32
33.66
32.69
31.75
31.00
30.45
30.03
29.65
29.30
29.11
29.15
29.45
29.85
30.14
30.10
29.67
28.90
27.89
26.68
25.21
23.35
20.98
18.12
14.96
11.79
8.84
6.18
3.66
0.95
-2.26
-6.14
-10.68
-15.70
-20.98
-26.35
-31.73
-37.10
-42.49
-47.88
-53.26
-58.61
-63.89
-68.90
-73.19
-75.96
-76.14
-72.74
-65.18
-53.65
-39.17
-23.37
-8.00
5.54
16.55
24.97
31.21
35.73
38.84
40.61
41.01
40.11
38.18
35.68
33.14
30.99
29.44
28.52
28.11
28.03
28.15
28.39
28.70
28.95
28.97
28.52
27.36
25.38
22.67
19.48
16.20
13.10
10.38
7.95
5.61
3.14
0.41
-2.65
-6.05
-9.74
-13.69
-17.81
-21.88
-25.66
-28.97
-31.82
-34.44
-37.27
-40.74
-45.17
-50.52
-56.34
-61.71
-65.39
-66.07
-62.75
-55.11
-43.69
-29.76
-14.95
-0.80
11.58
21.70
29.51
35.22
39.09
41.44
42.51
42.62
42.03
40.95
39.55
37.98
36.44
35.10
34.14
33.64
33.59
33.84
34.18
34.39
34.29
33.74
32.65
31.02
28.92
26.40
23.58
20.52
17.28
13.95
10.59
7.28
4.00
0.70
-2.73
-6.43
-10.45
-14.79
-19.39
-24.14
-28.85
-33.29
-37.26
-40.63
-43.52
-46.26
-49.38
-53.36
-58.35
-63.94
-69.15
-72.56
-72.75
-68.69
-60.15
-47.84
-33.19
-17.93
-3.62
8.69
18.61
26.22
31.82
35.72
38.12
39.23
39.35
38.79
37.88
36.84
35.75
34.61
33.51
32.63
32.23
32.50
33.41
34.68
35.88
36.61
36.68
36.08
34.93
33.31
31.21
28.60
25.46
21.95
18.30
14.77
11.41
8.06
4.37
0.03
-5.12
-10.88
-16.83
-22.41
-27.20
-30.99
-33.92
-36.32
-38.66
-41.46
-45.08
-49.70
-55.20
-61.12
-66.64
-70.65
-71.97
-69.54
-62.80
-51.92
-37.85
-22.13
-6.52
7.51
19.06
27.97
34.60
39.49
43.02
45.29
46.19
45.65
43.84
41.14
38.10
35.23
32.86
31.12
30.02
29.47
29.34
29.46
29.63
29.57
29.05
27.89
26.05
23.58
20.54
16.99
13.02
8.69
4.11
-0.57
-5.16
-9.44
-13.31
-16.78
-20.07
-23.48
-27.24
-31.39
-35.64
-39.53
-42.59
-44.52
-45.38
-45.53
-45.59
-46.17
-47.81
-50.69
-54.54
-58.53
-61.35
-61.54
-57.91
-49.97
-38.20
-23.93
-8.85
5.38
17.64
27.48
34.97
40.51
44.50
47.34
49.25
50.39
50.88
50.76
50.05
48.72
46.80
44.39
41.66
38.92
36.47
34.65
33.60
33.31
33.54
33.88
33.86
33.08
31.37
28.76
25.53
22.06
18.63
15.40
12.33
9.34
6.32
3.28
0.25
-2.71
-5.68
-8.81
-12.24
-16.00
-19.90
-23.58
-26.74
-29.16
-31.00
-32.60
-34.49
-37.15
-40.87
-45.60
-50.89
-55.83
-59.17
-59.63
-56.24
-48.68
-37.46
-23.85
-9.49
4.03
15.57
24.59
31.11
35.49
38.18
39.59
39.97
39.54
38.48
36.93
35.10
33.12
31.11
29.15
27.37
25.94
25.00
24.60
24.65
24.89
24.97
24.62
23.65
22.04
19.85
17.24
14.38
11.42
8.49
5.57
2.58
-0.59
-3.99
-7.49
-10.87
-13.85
-16.27
-18.17
-19.79
-21.38
-23.07
-24.84
-26.55
