1462952820.00
64.000000
-0.00
-0.00
-0.00
-0.00
-0.00
-0.00
-0.00
-0.00
-0.00
-0.00
0.00
0.01
0.01
-0.00
-0.03
-0.05
-0.05
-0.00
0.13
0.36
0.67
1.02
1.37
1.70
2.00
2.30
2.66
3.09
3.64
4.27
4.92
5.53
6.05
6.50
6.93
7.43
8.06
8.91
9.88
10.86
11.69
12.33
12.83
13.37
14.20
15.49
17.47
19.94
22.57
25.01
27.08
28.85
30.71
33.15
36.57
41.35
47.08
53.13
58.81
63.70
67.88
71.96
76.77
82.97
91.11
100.59
110.42
119.52
127.22
133.58
139.42
146.29
153.05
162.02
173.67
187.89
203.29
216.82
224.06
220.32
202.32
169.43
124.63
72.47
17.91
-35.72
-87.42
-138.05
-188.97
-240.74
-292.68
-342.86
-389.61
-431.66
-468.23
-498.60
-521.58
-535.46
-538.30
-528.71
-506.28
-472.24
-428.87
-379.02
-325.42
-270.26
-215.03
-160.72
-108.19
-58.25
-12.00
29.48
65.32
95.12
119.03
137.67
151.87
162.46
170.05
174.97
177.38
177.39
175.20
171.17
165.77
159.48
152.70
145.70
138.57
131.34
124.00
116.56
109.10
101.71
94.49
87.51
80.81
74.40
68.27
62.42
56.85
51.57
46.59
41.91
37.54
33.47
29.68
26.18
22.96
20.00
17.31
14.88
12.70
10.77
9.07
7.58
6.29
5.19
4.26
3.47
2.81
2.27
1.83
1.46
1.17
0.93
0.75
0.60
0.49
0.39
0.32
0.27
0.23
0.20
0.17
0.15
0.14
0.12
0.11
0.10
0.10
0.09
0.09
0.08
0.08
0.07
0.07
0.07
0.06
0.06
0.06
0.06
0.05
0.05
0.05
0.05
0.05
0.05
0.04
0.04
0.04
0.04
0.04
0.04
0.03
0.04
0.03
0.03
0.03
0.03
0.03
0.03
0.04
0.05
0.06
0.07
0.09
0.12
0.14
0.18
0.21
0.25
0.29
0.33
0.38
0.42
0.47
0.51
0.56
0.61
0.66
0.72
0.78
0.84
0.92
1.00
1.09
1.19
1.30
1.42
1.57
1.73
1.90
2.10
2.32
2.56
2.83
3.12
3.44
3.79
4.17
4.58
5.04
5.54
6.08
6.66
7.25
7.83
8.43
9.03
9.67
10.36
11.15
12.02
12.97
13.97
14.98
16.01
17.02
18.06
19.10
20.12
21.04
21.70
21.93
21.56
20.45
18.59
15.99
12.79
9.10
5.05
0.70
-3.88
-8.63
-13.39
-17.92
-21.87
-24.89
-26.81
-27.62
-27.64
-27.28
-27.01
-27.06
-27.43
-27.80
-27.80
-27.16
-25.90
-24.42
-23.31
-23.10
-24.01
-25.83
-27.89
-29.53
-30.22
-29.92
-29.08
-28.34
-28.37
-29.68
-32.59
-37.05
-42.54
-47.69
-50.43
-48.46
-40.28
-26.10
-8.19
9.84
24.39
33.35
36.68
36.09
33.82
31.52
29.67
27.93
25.79
23.19
20.58
18.54
17.32
16.64
15.95
14.66
12.58
9.92
7.21
4.98
3.59
3.08
3.20
3.63
4.08
4.42
4.68
4.97
5.38
5.97
6.71
7.49
8.17
8.60
8.72
8.52
8.15
7.87
7.95
8.55
9.67
11.09
12.41
13.23
13.24
12.31
10.52
8.00
4.93
1.41
-2.46
-6.59
-10.77
-14.71
-17.99
-20.22
-21.17
-20.79
-19.19
-16.59
-13.19
-9.18
-4.76
-0.33
3.54
6.22
7.24
6.49
4.32
1.38
-1.59
-4.12
-6.05
-7.48
-8.59
-9.51
-10.27
-10.83
-11.12
-11.02
-10.38
-9.06
-7.07
-4.59
-2.02
0.22
1.92
3.14
4.19
5.43
7.08
9.01
10.88
12.28
12.95
12.88
12.28
11.48
10.71
10.11
9.64
9.18
8.55
7.65
6.49
5.15
3.80
2.58
1.55
0.67
-0.21
-1.30
-2.75
-4.65
-6.89
-9.27
-11.51
-13.32
-14.58
-15.16
-15.07
-14.30
-12.81
-10.63
-7.90
-4.86
-1.88
0.72
2.72
4.11
4.99
5.56
5.93
6.15
6.22
6.13
5.91
5.62
5.29
4.96
4.62
4.31
4.08
3.97
4.03
4.23
4.43
4.49
4.30
3.90
3.46
3.21
3.36
3.94
4.85
5.82
6.52
6.67
6.14
4.94
3.29
1.48
-0.14
-1.34
-1.99
-2.17
-2.10
-2.02
-2.15
-2.58
-3.29
-4.16
-5.13
-6.09
-6.99
-7.85
-8.70
-9.59
-10.52
-11.41
-12.07
-12.26
-11.81
-10.70
-9.06
-7.14
-5.23
-3.49
-1.92
-0.42
1.16
2.86
4.69
6.61
8.56
10.47
12.26
13.80
14.89
15.43
15.41
14.93
14.18
13.39
12.69
12.14
11.73
11.35
10.86
10.10
9.03
7.72
6.33
5.15
4.40
4.15
4.32
4.71
5.02
5.02
4.63
3.85
2.84
1.80
0.89
0.15
-0.49
-1.23
-2.19
-3.40
-4.77
-6.07
-7.12
-7.84
-8.19
-8.16
-7.73
-6.87
-5.63
-4.14
-2.64
-1.37
-0.50
0.05
0.46
1.03
1.95
3.19
4.53
5.65
6.31
6.42
6.07
5.53
5.10
5.07
5.62
6.76
8.31
9.97
11.39
12.30
12.61
12.43
12.01
11.59
11.22
10.79
10.12
9.10
7.79
6.39
5.09
3.98
2.98
1.92
0.68
-0.73
-2.13
-3.36
-4.36
-5.19
-6.05
-7.14
-8.51
-10.06
-11.60
-12.99
-14.18
-15.22
-16.11
-16.84
-17.23
-17.11
-16.29
-14.73
-12.53
-9.92
-7.18
-4.59
-2.30
-0.31
1.49
3.25
5.02
6.66
7.96
8.71
8.92
8.71
8.36
8.07
7.82
7.47
6.76
5.61
4.07
2.39
0.84
-0.34
-1.10
-1.53
-1.77
-1.96
-2.09
-2.11
-1.87
-1.27
-0.30
0.90
2.12
3.10
3.69
3.81
3.48
2.75
1.68
0.30
-1.30
-2.97
-4.43
-5.39
-5.64
-5.17
-4.17
-2.98
-1.99
-1.48
-1.60
-2.26
-3.19
-4.01
-4.41
-4.19
-3.37
-2.17
-0.86
0.28
1.13
1.70
2.10
2.43
2.76
3.10
3.45
3.88
4.38
4.93
5.42
5.71
5.72
5.50
5.23
5.10
5.28
5.79
6.55
7.34
8.00
8.37
8.43
8.26
8.00
7.84
7.85
7.98
8.01
7.63
6.61
5.00
3.07
1.28
-0.09
-1.05
-1.94
-3.15
-4.87
-6.89
-8.73
-9.88
-10.14
-9.66
-8.85
-8.09
-7.56
-7.28
-7.16
-7.17
-7.34
-7.73
-8.30
-8.88
-9.27
-9.32
-8.96
-8.23
-7.21
-6.07
-4.92
-3.87
-2.92
-1.94
-0.70
0.93
2.87
4.72
5.83
5.60
3.69
0.23
-4.21
-8.84
-12.89
-15.83
-17.49
-17.99
-17.60
-16.60
-15.16
-13.32
-11.05
-8.34
-5.26
-2.01
1.16
3.96
6.14
7.55
8.15
7.98
7.14
5.86
4.43
3.13
2.17
1.54
1.02
0.25
-1.06
-2.95
-5.19
-7.31
-8.87
-9.63
-9.63
-9.13
-8.40
-7.63
-6.82
-5.84
-4.57
-3.00
-1.27
0.40
1.78
2.77
3.41
3.90
4.41
5.12
6.03
7.01
7.85
8.36
8.48
8.29
8.03
7.89
8.05
8.48
9.02
9.49
9.70
9.54
8.95
7.93
6.45
4.56
2.38
0.09
-2.01
-3.65
-4.68
-5.07
-4.91
-4.40
-3.69
-2.93
-2.23
-1.69
-1.40
-1.39
-1.63
-2.03
-2.44
-2.72
-2.88
-2.99
-3.25
-3.81
-4.73
-5.97
-7.36
-8.73
-9.91
-10.72
-11.04
-10.78
-9.87
-8.41
-6.64
-4.85
-3.33
-2.20
-1.42
-0.85
-0.36
0.10
0.51
0.84
1.19
1.71
2.57
3.81
5.33
6.92
8.33
9.44
10.23
10.73
10.92
10.72
10.03
8.81
7.19
5.37
3.53
1.77
0.10
-1.48
-2.82
-3.63
-3.61
-2.61
-0.78
1.50
3.76
5.70
7.26
8.59
9.86
11.07
11.94
12.03
10.91
8.41
4.66
0.04
-4.97
-9.93
-14.51
-18.41
-21.32
-22.83
-22.55
-20.31
-16.27
-10.94
-5.06
0.66
5.80
10.16
13.70
16.36
17.98
18.40
17.58
15.72
13.30
10.81
8.62
6.85
5.31
3.77
2.10
0.37
-1.24
-2.54
-3.53
-4.37
-5.29
-6.48
-8.02
-9.80
-11.67
-13.51
-15.34
-17.29
-19.62
-22.60
-26.38
-30.98
-36.26
-41.91
-47.59
-53.08
-58.38
-63.70
-69.37
-75.68
-82.62
-89.86
-96.72
-102.40
-106.22
-107.81
-107.31
-105.41
-103.25
-102.00
-102.54
-105.01
-108.70
-112.25
-114.01
-112.58
-107.12
-97.62
-84.89
-70.56
-56.66
-45.02
-36.53
-30.55
-25.00
-17.00
-4.09
14.84
39.19
67.16
96.75
126.49
155.51
183.18
208.44
229.67
245.19
253.96
256.14
253.00
246.23
237.06
225.65
210.95
191.24
164.84
130.96
90.24
44.73
-2.32
-47.15
-86.31
-117.33
-139.14
-152.04
-157.25
-156.35
-150.75
-141.41
-128.82
-113.25
-94.84
-73.80
-50.38
-24.98
1.77
28.97
55.32
79.17
98.61
111.68
116.60
112.19
98.28
76.00
47.71
16.55
-14.32
-42.63
-67.35
-88.45
-106.11
-119.95
-128.63
-130.45
-124.16
-109.97
-89.64
-65.90
-41.41
-17.84
4.23
25.00
44.72
63.28
80.15
94.75
106.92
117.06
125.91
134.26
142.56
150.76
158.39
164.78
169.28
171.48
171.37
169.40
166.45
163.58
161.79
161.67
163.24
165.99
169.15
171.98
174.09
175.50
176.46
177.17
177.38
176.36
172.99
166.18
155.24
140.17
121.71
101.15
79.83
58.88
38.89
19.79
1.15
-17.59
-36.72
-56.02
-74.70
-91.66
-105.85
-116.70
-124.34
-129.71
-134.10
-138.73
-144.23
-150.44
-156.61
-161.78
-165.28
-167.00
-167.28
-166.63
-165.44
-163.78
-161.55
-158.75
-155.60
-152.56
-150.14
-148.67
-148.13
-148.18
-148.32
-148.12
-147.32
-145.97
-144.39
-143.08
-142.54
-143.19
-145.27
-148.73
-153.25
-158.33
-163.44
-168.07
-171.91
-174.85
-176.96
-178.42
-179.31
-179.56
-178.83
-176.40
-171.23
-162.15
-148.14
-128.65
-103.91
-75.04
-43.68
-11.61
19.73
49.53
77.52
103.70
128.05
150.32
170.16
187.15
201.03
211.70
219.18
223.60
225.22
224.38
221.54
217.19
211.81
205.80
199.45
192.95
186.38
179.69
172.79
165.53
157.82
149.62
140.99
131.96
122.56
112.65
102.06
90.60
78.23
65.11
51.62
38.30
25.61
13.94
3.48
-5.73
-13.65
-20.22
-25.37
-29.15
-31.70
-33.33
-34.38
-35.10
-35.58
-35.79
-35.74
-35.56
-35.47
-35.67
-36.17
-36.76
-37.11
-36.97
-36.31
-35.36
-34.46
-33.91
-33.81
-34.08
-34.61
-35.31
-36.20
-37.33
-38.63
-39.97
-41.22
-42.36
-43.60
-45.27
-47.68
-50.86
-54.56
-58.28
-61.56
-64.19
-66.32
-68.31
-70.58
-73.37
-76.66
-80.10
-83.08
-84.84
-84.61
-81.84
-76.47
-68.98
-60.48
-52.35
-45.94
-42.28
-41.92
-45.01
-51.34
-60.45
-71.56
-83.51
-94.82
-103.78
-108.84
-108.88
-103.55
-93.33
-79.45
-63.64
-47.64
-32.89
-20.18
-9.56
-0.45
8.01
16.64
25.95
36.11
46.95
58.17
69.31
79.86
89.27
97.04
102.95
107.19
110.42
113.65
117.91
123.89
131.59
140.34
149.02
156.43
161.75
164.84
166.12
166.33
166.10
165.58
164.46
162.17
158.24
152.44
144.82
135.54
124.76
112.55
99.13
84.98
70.85
57.57
45.92
36.48
29.64
25.62
24.56
26.42
30.87
37.20
44.44
51.49
57.40
61.55
63.73
64.14
63.21
61.32
58.55
54.41
48.00
38.35
25.02
8.59
-9.35
-26.61
-41.35
-52.62
-60.68
-66.64
-71.71
-76.59
-81.32
-85.38
-88.23
-89.60
-89.65
-88.72
-87.11
-84.82
-81.70
-77.57
-72.49
-66.77
-60.98
-55.73
-51.38
-47.89
-44.82
-41.48
-37.13
-31.27
-23.86
-15.28
-6.16
2.77
10.92
18.00
24.03
29.32
34.24
39.03
43.51
46.98
48.32
46.27
39.92
29.09
14.40
-2.86
-21.19
-39.25
-56.07
-71.01
-83.67
-93.66
-100.66
-104.48
-105.19
-103.20
-99.22
-94.11
-88.57
-83.04
-77.62
-72.21
-66.73
-61.33
-56.34
-52.12
-48.88
-46.55
-44.82
-43.28
-41.65
-39.86
-37.92
-35.90
-33.81
-31.62
-29.31
-26.88
-24.37
-21.79
-19.18
-16.62
-14.33
-12.65
-11.89
-12.28
-13.75
-15.93
-18.21
-19.94
-20.58
-19.87
-17.92
-15.13
-12.12
-9.55
-7.96
-7.57
-8.30
-9.76
-11.40
-12.74
-13.43
-13.36
-12.59
-11.23
-9.33
-6.95
-4.16
-1.16
1.77
4.29
6.24
7.71
8.94
10.17
11.45
12.58
13.21
13.04
11.99
10.26
8.14
5.99
4.07
2.53
1.51
1.09
1.24
1.88
2.77
3.67
4.44
5.03
5.42
5.59
5.44
4.84
3.79
2.40
0.93
-0.41
-1.48
-2.29
-2.90
-3.33
-3.51
-3.31
-2.73
-1.87
-1.03
-0.48
-0.42
-0.77
-1.24
-1.48
-1.19
-0.27
1.13
2.76
4.33
5.76
7.15
8.72
10.61
12.79
14.99
16.85
18.02
18.36
17.93
16.94
15.63
14.20
12.71
11.10
9.32
7.35
5.27
3.27
1.52
0.19
-0.70
-1.22
-1.55
-1.91
-2.49
-3.43
-4.74
-6.32
-7.92
-9.26
-10.04
-10.06
-9.29
-7.86
-5.96
-3.83
-1.72
0.18
1.71
2.81
3.49
3.90
4.22
4.61
5.08
5.49
5.64
5.38
4.74
3.83
2.76
1.50
-0.09
-2.16
-4.73
-7.54
-10.20
-12.27
-13.47
-13.84
-13.60
-13.11
-12.57
-12.07
-11.48
-10.60
-9.27
-7.44
-5.25
-2.96
-0.90
0.67
1.66
2.14
2.29
2.32
2.35
2.37
2.37
2.34
2.43
2.78
3.53
4.64
5.99
7.37
8.66
9.88
11.14
12.57
14.14
15.72
17.11
18.21
19.11
20.08
21.37
23.03
24.79
26.17
26.67
25.93
23.89
20.79
17.03
13.09
9.44
6.47
4.45
3.50
3.50
4.14
5.07
5.92
6.54
6.89
7.07
7.11
7.00
6.63
5.92
4.84
3.48
1.99
0.49
-1.02
-2.65
-4.62
-7.05
-9.85
-12.71
-15.20
-16.90
-17.65
-17.54
-16.90
-16.06
-15.29
-14.62
-13.88
-12.86
-11.33
-9.22
-6.55
-3.48
-0.13
3.38
7.03
10.79
14.60
18.26
21.47
23.89
25.24
25.44
24.68
23.30
21.71
20.30
19.32
18.84
18.75
18.88
19.00
18.92
18.55
17.86
16.90
15.72
14.43
13.11
11.82
10.60
9.44
8.31
7.09
5.70
4.04
2.14
0.09
-1.92
-3.75
-5.36
-6.84
-8.43
-10.38
-12.78
-15.51
-18.20
-20.36
-21.51
-21.35
-19.84
-17.24
-13.99
-10.63
-7.60
-5.15
-3.32
-1.95
-0.79
0.36
1.66
3.20
4.96
6.94
9.05
11.12
12.95
14.33
15.17
15.45
15.34
15.09
14.90
14.93
15.15
15.40
15.50
15.32
14.85
14.27
13.76
13.43
13.20
12.83
11.97
10.44
8.21
5.48
2.55
-0.30
-2.84
-4.93
-6.50
-7.56
-8.28
-8.96
-9.94
-11.39
-13.21
-15.03
-16.30
-16.58
-15.72
-13.92
-11.54
-8.94
-6.32
-3.73
-1.18
1.24
3.33
4.86
5.76
6.19
6.48
7.01
8.04
9.61
11.51
13.44
15.06
16.17
16.78
17.03
17.12
17.22
17.31
17.33
17.18
16.84
16.35
15.80
15.23
14.63
13.96
13.19
12.33
11.41
10.41
9.21
7.62
5.48
2.81
-0.13
-2.89
-4.93
-5.85
-5.62
-4.59
-3.40
-2.81
-3.34
-5.08
-7.67
-10.41
-12.60
-13.80
-13.85
-12.95
-11.41
-9.51
-7.47
-5.55
-4.01
-3.14
-3.11
-3.88
-5.17
-6.48
-7.38
-7.66
-7.35
-6.70
-5.98
-5.37
-4.90
-4.57
-4.41
-4.60
-5.28
-6.55
-8.30
-10.22
-11.92
-13.01
-13.24
-12.51
-10.97
-8.89
-6.57
-4.23
-1.88
0.57
3.20
5.97
8.67
10.93
12.43
13.04
12.74
11.69
9.98
7.69
4.87
1.65
-1.69
-4.82
-7.55
-9.99
-12.46
-15.42
-19.14
-23.58
-28.33
-32.83
-36.38
-38.28
-37.98
-35.14
-29.76
-22.28
-13.56
-4.70
3.27
9.67
14.39
17.78
20.49
23.10
25.86
28.61
30.82
31.87
31.18
28.59
24.38
19.24
14.05
9.55
6.22
4.13
3.14
2.92
3.21
3.72
4.30
4.79
5.07
5.15
5.04
4.86
4.67
4.46
4.08
3.23
1.69
-0.67
-3.70
-7.10
-10.45
-13.46
-15.97
-18.02
-19.66
-20.84
-21.47
-21.44
-20.82
-19.97
-19.35
-19.42
-20.32
-21.87
-23.58
-24.89
-25.38
-24.93
-23.63
-21.71
-19.43
-16.96
-14.42
-11.88
-9.48
-7.34
-5.55
-4.15
-3.11
-2.23
-1.29
-0.13
1.27
2.65
3.59
3.66
2.71
1.01
-0.85
-2.11
-2.27
-1.20
0.79
3.26
5.82
8.37
10.91
13.49
15.94
17.99
19.36
19.92
19.80
19.21
18.34
17.20
15.68
13.69
11.33
8.91
6.85
5.50
4.92
4.78
4.53
3.62
1.73
-1.06
-4.30
-7.31
-9.45
-10.32
-9.99
-8.85
-7.54
-6.67
-6.65
-7.56
-9.20
-11.17
-13.03
-14.43
-15.19
-15.33
-15.00
-14.36
-13.57
-12.62
-11.49
-10.08
-8.33
-6.17
-3.54
-0.39
3.27
7.37
11.66
15.79
19.40
22.30
24.48
26.14
27.49
28.69
29.80
30.91
32.09
33.45
35.05
36.73
38.15
38.88
38.52
36.98
34.41
31.12
27.42
23.56
19.59
15.56
11.51
7.52
3.64
-0.12
-3.81
-7.39
-10.76
-13.72
-16.09
-17.82
-19.02
-19.95
-20.80
-21.65
-22.36
-22.67
-22.38
-21.38
-19.75
-17.72
-15.54
-13.43
-11.55
-9.94
-8.62
-7.56
-6.67
-5.87
-5.10
-4.31
-3.53
-2.82
-2.25
-1.85
-1.66
-1.69
-1.94
-2.36
-2.86
-3.29
-3.50
-3.41
-3.06
-2.60
-2.19
-1.95
-1.88
-1.89
-1.84
-1.72
-1.57
-1.57
-1.80
-2.25
-2.75
-3.10
-3.17
-3.04
-2.99
-3.27
-4.09
-5.41
-7.04
-8.73
-10.24
-11.43
-12.14
-12.21
-11.50
-9.94
-7.65
-4.89
-2.06
0.47
2.45
3.82
4.64
5.06
5.28
5.46
5.71
5.99
6.23
6.28
6.12
5.79
5.46
5.23
5.11
4.98
4.65
4.03
3.19
2.30
1.53
0.91
0.32
-0.43
-1.43
-2.53
-3.47
-3.97
-3.98
-3.72
-3.66
-4.32
-5.98
-8.63
-11.93
-15.39
-18.59
-21.37
-23.74
-25.79
-27.58
-28.90
-29.43
-28.82
-26.83
-23.45
-18.97
-13.80
-8.46
-3.37
1.13
4.91
7.99
10.42
12.31
13.73
14.74
15.39
15.79
16.08
16.33
16.60
16.87
17.08
17.20
17.29
17.38
17.53
17.69
17.77
17.67
17.35
16.86
16.33
15.90
15.68
15.61
15.51
15.03
13.94
12.15
9.79
7.19
4.64
2.33
0.21
-1.90
-4.20
-6.75
-9.41
-11.90
-13.95
-15.36
-16.09
-16.20
-15.80
-14.99
-13.82
-12.37
-10.75
-9.15
-7.79
-6.78
-6.04
-5.35
-4.45
-3.20
-1.70
-0.26
0.77
1.15
0.88
0.25
-0.38
-0.71
-0.65
-0.25
0.34
0.98
1.67
2.37
3.05
3.61
3.85
3.60
2.85
1.74
0.58
-0.30
-0.68
-0.51
0.11
0.97
1.84
2.55
2.91
2.81
2.19
1.03
-0.53
-2.32
-4.12
-5.80
-7.37
-9.02
-11.07
-13.76
-17.12
-20.80
-24.17
-26.48
-27.15
-26.00
-23.28
-19.55
-15.41
-11.34
-7.59
-4.22
-1.22
1.47
3.87
6.06
8.10
9.95
11.50
12.49
12.66
11.82
10.00
7.36
4.22
0.89
-2.33
-5.14
-7.30
-8.64
-9.09
-8.73
-7.73
-6.31
-4.62
-2.70
-0.50
2.11
5.19
8.79
12.87
17.32
21.98
26.63
30.99
34.85
37.98
40.25
41.62
42.13
41.93
41.26
40.37
39.42
38.41
37.13
35.27
32.59
29.02
24.78
20.36
16.26
12.83
10.18
8.18
6.59
5.31
4.37
3.96
4.28
5.43
7.29
9.57
11.84
13.65
14.61
14.42
12.88
9.86
5.45
-0.06
-6.13
-12.18
-17.69
-22.47
-26.58
-30.26
-33.70
-36.90
-39.73
-42.05
-43.99
-45.88
-48.13
-50.88
-53.82
-56.20
-57.21
-56.21
-53.13
-48.39
-42.72
-36.80
-31.05
-25.62
-20.50
-15.68
-11.28
-7.52
-4.53
-2.33
-0.80
0.28
0.99
1.34
1.17
0.31
-1.27
-3.44
-5.85
-8.05
-9.59
-10.12
-9.48
-7.77
-5.24
-2.31
0.51
2.83
4.36
5.05
5.04
4.67
4.32
4.25
4.52
4.87
4.85
4.00
2.15
-0.54
-3.70
-6.82
-9.65
-12.19
-14.66
-17.22
-19.80
-22.13
-23.91
-25.10
-25.97
-27.05
-28.88
-31.77
-35.73
-40.59
-46.10
-52.14
-58.69
-65.71
-73.08
-80.58
-87.99
-95.22
-102.43
-109.84
-117.57
-125.38
-132.60
-138.39
-142.06
-143.45
-142.93
-141.20
-138.82
-135.94
-132.28
-127.39
-120.92
-112.87
-103.50
-93.14
-81.96
-69.94
-56.96
-42.91
-27.83
-11.91
4.64
21.60
38.81
56.16
73.66
91.28
108.92
126.26
142.74
157.72
170.66
181.27
189.50
195.52
199.36
200.98
200.25
197.23
192.27
186.05
179.31
172.63
166.14
159.77
153.33
146.78
140.30
134.11
128.30
122.74
117.19
111.39
105.29
99.15
93.55
89.11
86.43
85.75
86.89
89.34
92.43
95.60
98.56
101.32
104.12
107.27
110.99
115.35
120.23
125.44
130.79
136.21
141.81
147.91
154.87
162.96
172.15
181.96
191.59
199.96
206.04
208.92
207.99
202.92
193.76
180.95
165.15
146.96
126.59
103.82
78.12
49.11
16.94
-17.44
-52.46
-86.39
-117.66
-145.25
-168.57
-187.41
-201.79
-211.93
-218.37
-221.89
-223.44
-223.90
-223.78
-223.14
-221.68
-218.94
-214.61
-208.69
-201.55
-193.74
-185.88
-178.39
-171.48
-165.22
-159.72
-155.23
-152.10
-150.40
-149.73
-149.08
-147.17
-142.96
-136.31
-128.24
-120.57
-115.09
-112.53
-111.95
-110.94
-106.76
-97.66
-84.18
-69.19
-56.61
-49.72
-49.27
-52.82
-55.91
-54.22
-45.50
-30.54
-12.44
4.67
16.91
21.44
16.73
2.87
-17.76
-39.98
-56.43
-60.03
-47.34
-21.36
8.65
30.61
35.35
21.43
-3.64
-27.04
-36.91
-28.23
-4.76
23.36
44.96
53.24
48.94
39.35
34.30
40.85
59.45
83.13
100.88
103.14
87.10
58.56
29.24
10.80
8.88
20.30
35.05
41.83
33.71
10.69
-21.79
-56.59
-88.37
-114.81
-135.86
-152.29
-164.89
-174.62
-182.61
-189.82
-196.00
-199.16
-195.99
-183.26
-159.43
-125.49
-84.49
-40.47
2.68
41.76
74.27
98.48
113.60
120.27
120.68
117.97
115.21
114.32
115.57
117.79
119.04
117.47
111.75
101.41
86.96
69.81
52.04
35.78
22.61
12.94
6.01
0.27
-5.87
-13.29
-21.75
-30.14
-37.07
-41.53
-43.47
-43.45
-42.33
-40.66
-38.32
-34.64
-28.78
-20.25
-8.99
4.20
18.68
34.06
50.39
67.92
86.94
107.40
128.91
151.05
172.41
192.18
209.78
224.84
237.35
247.50
255.65
262.05
267.44
271.24
274.08
276.80
280.06
283.65
285.88
283.67
273.18
252.00
217.99
173.10
121.63
68.93
20.12
-20.81
-51.35
-75.18
-86.29
-91.28
-97.09
-110.32
-134.36
-167.39
-202.56
-230.68
-244.30
-240.32
-223.27
-200.14
-178.34
-162.80
-154.75
-152.13
-150.67
-145.35
-131.39
-108.04
-77.82
-47.46
-25.53
-18.36
-26.42
-43.54
-59.78
-66.36
-61.28
-48.85
-37.20
-33.25
-38.74
-49.76
-59.64
-63.24
-59.77
-53.69
-51.59
-58.90
-77.25
-103.42
-130.58
-150.71
-157.64
-149.22
-128.35
-101.86
-78.13
-64.28
-63.64
-74.36
-89.89
-101.06
-99.53
-81.51
-50.03
-14.77
11.36
17.67
0.68
-33.82
-72.68
-100.61
-105.89
-84.41
-39.82
19.18
83.13
144.95
201.17
250.85
293.70
328.23
351.26
358.81
347.74
317.57
271.52
215.94
158.74
107.27
66.62
38.93
23.36
16.70
13.89
9.00
-3.19
-25.52
-56.56
-90.36
-117.99
-130.84
-124.04
-98.65
-61.23
-21.26
12.20
33.07
39.01
30.75
10.96
-16.68
-48.08
-79.33
-107.25
-130.10
-147.83
-161.92
-174.81
-189.10
-206.91
-229.20
-254.87
-279.97
-297.42
-298.29
-274.49
-222.39
-145.35
-54.06
36.15
110.10
157.49
175.58
169.31
149.08
126.92
112.67
110.86
119.59
131.67
138.13
132.59
114.71
90.70
70.48
62.79
70.79
90.72
114.08
132.08
139.48
135.87
124.13
107.59
88.02
65.66
40.48
13.49
-12.95
-35.90
-52.89
-62.73
-65.78
-63.68
-58.96
-54.70
-53.47
-56.26
-61.41
-65.02
-63.08
-54.25
-41.69
-32.38
-33.72
-49.11
-75.27
-102.85
-120.39
-119.50
-98.50
-62.81
-22.29
12.98
36.21
45.61
44.06
37.23
31.08
29.43
32.25
35.65
33.98
23.40
4.67
-16.50
-32.21
-36.92
-30.94
-20.44
-13.40
-14.18
-20.41
-24.53
-19.39
-4.08
14.19
23.90
16.21
-9.25
-43.66
-73.65
-88.29
-83.72
-63.53
-35.27
-6.41
17.86
34.33
40.52
34.57
16.79
-8.70
-34.14
-50.90
-53.58
-42.77
-24.69
-7.70
2.14
3.66
0.03
-4.17
-6.25
-6.92
-9.26
-15.93
-26.38
-35.85
-36.87
-22.69
9.15
55.10
106.75
153.92
188.43
206.31
207.57
194.29
168.62
132.31
87.70
38.96
-7.62
-45.36
-69.92
-81.31
-83.75
-83.27
-84.36
-87.79
-90.75
-88.88
-78.95
-60.31
-34.86
-5.74
23.88
51.28
74.17
90.35
98.12
96.98
88.14
74.58
60.24
48.77
42.31
41.04
43.44
47.25
50.45
51.88
51.37
49.43
46.74
43.65
40.02
35.28
28.85
20.56
11.01
1.57
-6.04
-10.41
-10.99
-8.29
-3.59
1.60
6.14
9.43
11.37
12.00
11.35
9.36
6.22
2.46
-1.01
-3.26
-3.70
-2.34
0.23
3.14
5.47
6.48
5.70
2.97
-1.52
-7.10
-12.69
-16.98
-18.78
-17.47
-13.19
-6.80
0.52
7.68
14.05
19.47
24.10
28.11
31.56
34.41
36.57
38.01
38.74
38.70
37.72
35.64
32.41
28.29
23.88
20.07
17.76
17.62
19.79
23.77
28.60
33.13
36.44
38.18
38.58
38.27
37.81
37.29
36.18
33.49
28.28
20.15
9.58
-2.19
-13.51
-22.84
-29.30
-32.89
-34.41
-35.10
-36.13
-38.16
-41.22
-44.86
-48.56
-51.98
-55.15
-58.43
-62.24
-66.84
-72.14
-77.80
-83.30
-88.16
-92.10
-95.17
-97.68
-100.05
-102.55
-105.14
-107.43
-108.77
-108.58
-106.61
-102.86
-97.62
-91.25
-84.00
-76.04
-67.47
-58.15
-47.48
-34.24
-16.98
5.25
31.92
60.50
86.85
106.54
116.46
116.06
107.45
94.39
80.83
69.45
61.09
55.01
49.81
44.22
37.74
30.63
23.63
17.51
12.69
9.20
6.76
5.16
4.50
5.09
7.34
11.27
16.40
21.73
26.06
28.53
28.94
27.88
26.45
25.88
27.13
30.81
37.13
46.00
57.05
69.43
81.59
91.38
96.49
95.03
86.40
71.54
52.71
32.73
14.11
-1.56
-13.74
-22.73
-29.25
-34.20
-38.45
-42.81
-47.91
-54.02
-60.99
-68.17
-74.55
-79.12
-81.10
-80.29
-77.06
-72.18
-66.58
-61.02
-55.87
-51.10
-46.35
-41.14
-35.12
-28.18
-20.48
-12.38
-4.39
2.99
9.34
14.50
18.65
22.18
25.65
29.39
33.47
37.51
40.96
43.27
44.16
43.64
41.96
39.42
36.26
32.59
28.44
23.79
18.55
12.67
6.11
-0.96
-8.15
-14.77
-20.00
-23.11
-23.76
-22.12
-18.87
-14.99
-11.43
-8.91
-7.79
-8.03
-9.38
-11.47
-13.86
-16.15
-18.04
-19.26
-19.76
-19.66
-19.31
-19.17
-19.61
-20.79
-22.52
-24.38
-25.95
-27.03
-27.91
-29.24
-31.83
-36.23
-42.56
-50.39
-58.97
-67.44
-74.92
-80.53
-83.29
-82.29
-77.02
-67.88
-56.45
-45.21
-36.77
-32.82
-33.41
-36.86
-40.59
-42.27
-40.88
-36.85
-31.51
-26.04
-20.46
-13.41
-2.61
13.99
37.10
65.48
96.30
126.12
152.19
173.12
188.70
198.81
202.36
196.91
180.10
152.14
117.51
84.26
60.63
50.74
52.23
57.56
58.69
51.80
39.30
27.29
20.47
18.18
14.64
3.75
-15.31
-36.03
-48.05
-44.20
-25.84
-2.98
11.90
11.28
-2.85
-20.98
-32.60
-32.98
-25.37
-17.47
-15.13
-18.10
-20.79
-16.80
-3.92
14.50
32.17
44.13
49.65
51.36
52.27
52.61
49.41
39.09
21.23
0.88
-13.05
-12.48
4.55
31.68
57.15
70.32
68.11
57.16
50.37
58.91
85.07
120.04
148.15
155.03
134.88
92.70
41.00
-6.33
-39.43
-54.46
-52.92
-39.76
-21.66
-5.95
0.95
-4.43
-20.81
-42.38
-61.03
-69.89
-66.59
-54.34
-40.42
-32.94
-37.06
-52.69
-74.20
-92.42
-98.46
-88.00
-63.40
-32.96
-7.08
6.83
7.28
-2.18
-16.88
-35.23
-59.86
-94.46
-138.42
-183.20
-213.71
-214.96
-180.32
-116.68
-43.35
15.57
41.61
29.77
-9.93
-57.56
-92.61
-102.50
-86.52
-54.06
-18.31
10.24
27.16
33.12
30.22
18.62
-3.19
-35.19
-72.10
-102.90
-114.80
-100.33
-63.05
-17.65
16.32
23.96
2.88
-35.38
-71.03
-85.77
-71.26
-32.10
17.47
60.61
84.63
84.56
62.76
26.26
-15.98
-54.87
-82.30
-92.54
-84.11
-61.23
-33.61
-13.46
-10.62
-28.00
-59.69
-93.45
-116.14
-119.55
-103.70
-75.91
-46.80
-25.47
-16.29
-17.98
-25.02
-30.22
-27.35
-13.57
9.23
34.41
52.99
57.29
44.64
18.87
-11.48
-37.59
-54.72
-63.66
-68.49
-71.83
-71.80
-62.86
-40.36
-5.32
34.42
67.93
87.66
94.15
95.67
102.90
122.10
151.02
180.21
198.22
197.16
176.17
140.94
101.06
66.52
44.84
38.81
45.46
56.58
61.63
52.42
27.25
-7.77
-41.87
-65.28
-74.59
-73.93
-71.45
-73.19
-78.57
-80.91
-72.44
-50.53
-20.52
6.71
21.11
19.67
8.05
-2.57
-2.48
11.08
32.35
50.51
55.90
45.63
25.43
6.90
1.49
14.52
42.30
73.97
97.25
104.90
98.61
87.80
83.98
93.88
115.40
138.93
153.20
151.87
136.67
115.44
96.74
84.64
76.91
67.35
50.43
25.17
-4.18
-30.29
-46.87
-51.68
-47.43
-39.84
-34.54
-34.52
-39.21
-45.51
-49.98
-50.79
-48.58
-45.98
-45.94
-50.21
-58.43
-68.42
-77.30
-82.75
-83.78
-80.97
-75.85
-69.92
-64.01
-58.16
-51.90
-44.90
-37.39
-30.14
-24.21
-20.37
-18.87
-19.50
-21.71
-24.89
-28.46
-31.99
-35.19
-37.95
-40.39
-42.76
-45.28
-48.13
-51.25
-54.51
-57.80
-61.21
-65.00
-69.40
-74.43
-79.67
-84.47
-88.14
-90.38
-91.43
-92.01
-92.88
-94.64
-97.31
-100.50
-103.57
-105.96
-107.38
-107.82
-107.53
-106.81
-105.89
-104.81
-103.25
-100.59
-95.95
-88.42
-77.34
-62.41
-43.94
-22.68
0.39
24.33
48.48
72.49
96.17
119.31
141.55
162.38
181.24
197.75
211.79
223.40
232.69
239.48
243.29
243.48
239.57
231.55
220.07
206.28
191.54
177.02
163.41
150.82
138.94
127.32
115.71
104.06
92.53
81.28
70.37
59.74
49.35
39.29
29.75
21.02
13.31
6.66
1.01
-3.80
-7.96
-11.67
-15.14
-18.55
-22.00
-25.37
-28.46
-31.00
-32.81
-33.82
-34.13
-33.92
-33.43
-32.79
-32.06
-31.19
-30.02
-28.39
-26.28
-23.80
-21.22
-18.88
-16.95
-15.52
-14.50
-13.73
-13.11
-12.58
-12.12
-11.72
-11.38
-11.08
-10.89
-10.86
-10.95
-11.01
-10.78
-10.08
-8.89
-7.40
-5.98
-4.91
-4.34
-4.22
-4.38
-4.74
-5.23
-5.88
-6.74
-7.80
-8.96
-10.07
-11.10
-12.11
-13.29
-14.85
-16.87
-19.25
-21.64
-23.67
-25.06
-25.78
-26.03
-26.13
-26.26
-26.41
-26.31
-25.64
-24.19
-22.02
-19.47
-16.94
-14.83
-13.29
-12.32
-11.77
-11.47
-11.30
-11.09
-10.67
-9.80
-8.32
-6.25
-3.84
-1.56
0.18
1.16
1.56
1.72
2.03
2.59
3.27
3.75
3.78
3.36
2.65
1.82
0.87
-0.36
-2.02
-4.06
-6.20
-8.02
-9.22
-9.84
-10.20
-10.78
-11.90
-13.57
-15.48
-17.13
-18.05
-17.98
-16.92
-15.12
-12.97
-10.86
-9.05
-7.56
-6.24
-4.78
-2.94
-0.65
1.97
4.62
6.98
8.82
10.09
10.86
11.21
11.24
11.00
10.53
9.92
9.27
8.71
8.25
7.82
7.25
6.46
5.47
4.48
3.72
3.30
3.09
2.84
2.21
1.09
-0.38
-1.84
-2.90
-3.31
-3.05
-2.29
-1.38
-0.65
-0.40
-0.84
-2.06
-3.96
-6.27
-8.55
-10.38
-11.47
-11.80
-11.56
-11.03
-10.47
-9.94
-9.37
-8.67
-7.75
-6.65
-5.39
-4.03
-2.56
-1.02
0.56
2.06
3.42
4.58
5.64
6.72
7.99
9.49
11.20
12.94
14.44
15.45
15.79
15.41
14.41
13.02
11.48
9.88
8.30
6.67
5.02
3.47
2.21
1.37
0.94
0.66
0.27
-0.50
-1.69
-3.12
-4.56
-5.78
-6.65
-7.22
-7.56
-7.79
-7.97
-8.11
-8.19
-8.18
-8.07
-7.85
-7.49
-6.95
-6.25
-5.43
-4.59
-3.85
-3.27
-2.84
-2.52
-2.23
-1.91
-1.52
-1.02
-0.36
0.50
1.57
2.75
3.83
4.54
4.70
4.27
3.44
2.48
1.60
0.96
0.50
0.15
-0.17
-0.45
-0.57
-0.45
-0.10
0.33
0.61
0.52
-0.03
-0.92
-2.01
-3.18
-4.41
-5.83
-7.51
-9.41
-11.32
-12.96
-14.09
-14.64
-14.69
-14.35
-13.71
-12.77
-11.51
-10.00
-8.38
-6.82
-5.40
-4.06
-2.61
-0.91
1.08
3.21
5.22
6.91
8.15
8.96
9.43
9.59
9.46
9.08
8.51
7.96
7.64
7.81
8.55
9.78
11.31
12.83
14.15
15.14
15.80
16.15
16.15
15.73
14.79
13.38
11.67
9.92
8.34
6.96
5.69
4.38
3.01
1.66
0.49
-0.40
-1.01
-1.48
-1.93
-2.44
-3.01
-3.59
-4.19
-4.86
-5.70
-6.70
-7.72
-8.48
-8.69
-8.23
-7.21
-6.00
-5.15
-5.19
-6.37
-8.60
-11.42
-14.13
-16.02
-16.56
-15.55
-13.19
-9.91
-6.33
-2.96
-0.14
2.00
3.43
4.14
4.11
3.36
2.07
0.64
-0.44
-0.80
-0.33
0.74
1.95
2.89
3.39
3.54
3.60
3.79
4.13
4.42
4.34
3.66
2.31
0.43
-1.67
-3.64
-5.20
-6.17
-6.49
-6.29
-5.72
-5.04
-4.53
-4.40
-4.79
-5.68
-6.91
-8.27
-9.59
-10.70
-11.60
-12.33
-12.93
-13.37
-13.59
-13.44
-12.84
-11.82
-10.53
-9.13
-7.74
-6.32
-4.74
-2.86
-0.71
1.51
3.48
4.94
5.88
6.51
7.21
8.24
9.65
11.15
12.33
12.89
12.73
12.06
11.31
10.88
10.98
11.54
12.26
12.86
13.19
13.33
13.49
13.81
14.26
14.57
14.45
13.81
12.75
11.57
10.53
9.55
8.35
6.54
3.92
0.71
-2.63
-5.59
-7.87
-9.54
-10.89
-12.23
-13.63
-14.92
-15.85
-16.32
-16.37
-16.23
-16.04
-15.73
-15.00
-13.50
-11.08
-7.91
-4.49
-1.39
1.01
2.66
3.76
4.56
5.17
5.47
5.32
4.74
3.94
3.31
3.21
3.75
4.73
5.85
6.80
7.35
7.46
7.18
6.62
5.96
5.41
5.17
5.35
5.90
6.54
6.91
6.70
5.75
4.11
2.03
-0.13
-1.98
-3.26
-3.81
-3.69
-3.05
-2.11
-1.09
-0.10
0.74
1.31
1.45
1.05
0.08
-1.36
-3.02
-4.55
-5.75
-6.59
-7.20
-7.77
-8.44
-9.09
-9.46
-9.30
-8.53
-7.30
-5.97
-4.90
-4.20
-3.72
-3.13
-2.10
-0.50
1.57
3.86
6.12
8.15
9.80
10.87
11.17
10.57
9.13
7.15
5.15
3.71
3.21
3.78
5.29
7.33
9.42
11.08
12.05
12.24
11.86
11.25
10.78
10.55
10.43
10.03
9.02
7.28
5.02
2.64
0.54
-1.10
-2.36
-3.45
-4.54
-5.62
-6.54
-7.14
-7.39
-7.53
-7.86
-8.67
-10.00
-11.68
-13.33
-14.68
-15.60
-16.24
-16.89
-17.76
-18.81
-19.78
-20.28
-19.99
-18.77
-16.77
-14.31
-11.77
-9.42
-7.38
-5.59
-3.81
-1.76
0.75
3.79
7.18
10.58
13.61
15.91
17.34
17.91
17.72
16.97
15.83
14.48
13.10
11.86
10.83
10.00
9.28
8.51
7.57
6.45
5.26
4.17
3.31
2.72
2.29
1.87
1.34
0.62
-0.28
-1.39
-2.73
-4.30
-6.06
-7.85
-9.46
-10.72
-11.60
-12.30
-13.11
-14.29
-15.83
-17.48
-18.78
-19.32
-18.80
-17.19
-14.68
-11.61
-8.37
-5.26
-2.51
-0.15
1.93
3.88
5.82
7.74
9.52
11.01
12.20
13.18
14.12
15.10
16.01
16.55
16.47
15.72
14.54
13.30
12.29
11.56
10.86
9.87
8.40
6.55
4.64
3.05
2.05
1.69
1.91
2.45
3.04
3.38
3.20
2.44
1.18
-0.30
-1.70
-2.79
-3.52
-3.93
-4.15
-4.36
-4.72
-5.44
-6.65
-8.38
-10.46
-12.54
-14.15
-14.92
-14.70
-13.54
-11.66
-9.32
-6.76
-4.11
-1.49
0.97
3.17
5.09
6.69
7.99
9.02
9.86
10.52
11.00
11.20
10.99
10.29
9.05
7.30
5.22
2.98
0.86
-0.81
-1.72
-1.68
-0.73
0.86
2.61
4.12
5.24
6.13
7.11
8.42
10.01
11.52
12.43
12.34
11.16
9.07
6.46
3.67
0.96
-1.54
-3.74
-5.51
-6.77
-7.49
-7.83
-8.03
-8.29
-8.78
-9.53
-10.43
-11.30
-11.91
-12.07
-11.65
-10.68
-9.31
-7.84
-6.55
-5.61
-4.97
-4.37
-3.46
-1.97
0.11
2.60
5.14
7.44
9.34
10.88
12.22
13.46
14.56
15.38
15.68
15.32
14.40
13.17
11.96
10.93
10.11
9.29
8.29
7.04
5.69
4.42
3.41
2.67
2.07
1.37
0.41
-0.86
-2.31
-3.77
-5.06
-6.12
-6.93
-7.56
-8.10
-8.61
-9.19
-9.96
-11.05
-12.52
-14.31
-16.11
-17.47
-17.93
-17.24
-15.47
-12.95
-10.17
-7.53
-5.27
-3.42
-1.89
-0.57
0.65
1.87
3.15
4.51
5.95
7.33
8.53
9.42
9.94
10.10
9.91
9.46
8.84
8.15
7.59
7.30
7.37
7.77
8.34
8.87
9.19
9.24
9.03
8.61
8.00
7.14
5.96
4.39
2.46
0.28
-1.90
-3.87
-5.45
-6.64
-7.58
-8.50
-9.58
-10.86
-12.18
-13.29
-13.97
-14.08
-13.69
-12.93
-11.90
-10.64
-9.17
-7.54
-5.88
-4.35
-3.05
-1.98
-1.02
0.01
1.28
2.84
4.67
6.61
8.43
9.84
10.63
10.74
10.30
9.59
8.91
8.50
8.42
8.62
9.03
9.56
10.16
10.67
10.84
10.44
9.36
7.66
5.57
3.46
1.62
0.29
-0.49
-0.85
-1.04
-1.42
-2.33
-3.93
-6.26
-9.11
-12.17
-15.11
-17.66
-19.66
-21.02
-21.69
-21.60
-20.74
-19.10
-16.74
-13.78
-10.41
-6.84
-3.26
0.20
3.48
6.56
9.31
11.57
13.12
13.85
13.91
13.59
13.24
13.09
13.11
13.14
12.99
12.68
12.40
12.42
12.85
13.58
14.34
14.79
14.80
14.37
13.62
12.66
11.55
10.31
8.92
7.39
5.74
3.91
1.89
-0.30
-2.49
-4.51
-6.19
-7.47
-8.46
-9.34
-10.21
-11.01
-11.63
-11.96
-12.01
-11.93
-11.86
-11.90
-12.03
-12.10
-11.88
-11.23
-10.01
-8.31
-6.32
-4.34
-2.59
-1.17
0.11
1.55
3.47
6.02
9.08
12.39
15.62
18.54
21.06
23.19
24.85
25.79
25.67
24.18
21.15
16.68
11.11
4.94
-1.33
-7.27
-12.62
-17.19
-20.82
-23.25
-24.15
-23.22
-20.38
-15.86
-10.27
-4.50
0.46
3.81
5.07
4.26
1.89
-1.28
-4.51
-7.25
-9.27
-10.62
-11.47
-11.92
-11.95
-11.57
-10.94
-10.44
-10.59
-11.73
-13.86
-16.53
-19.00
-20.53
-20.68
-19.37
-16.93
-13.86
-10.67
-7.76
-5.34
-3.47
-2.11
-1.09
-0.26
0.49
1.17
1.56
1.40
0.54
-0.88
-2.38
-3.30
-3.21
-2.11
-0.52
0.77
1.11
0.23
-1.65
-4.01
-6.26
-7.76
-7.89
-6.09
-2.06
3.95
11.06
17.89
23.01
25.58
25.57
23.73
21.14
18.66
16.73
15.31
14.21
13.35
12.81
12.73
13.15
13.87
14.44
14.34
13.13
10.64
6.95
2.31
-3.04
-8.89
-15.05
-21.20
-26.79
-31.18
-33.85
-34.64
-33.75
-31.66
-28.93
-25.93
-22.83
-19.72
-16.64
-13.71
-10.98
-8.48
-6.01
-3.35
-0.37
2.93
6.35
9.61
12.47
14.77
16.41
17.38
17.71
17.44
16.69
15.60
14.40
13.30
12.50
12.02
11.74
11.41
10.81
9.88
8.73
7.66
6.90
6.54
6.47
6.42
6.10
5.37
4.29
2.94
1.39
-0.38
-2.43
-4.74
-7.12
-9.27
-10.84
-11.60
-11.51
-10.73
-9.59
-8.42
-7.42
-6.59
-5.81
-4.86
-3.56
-1.92
-0.04
1.79
3.29
4.29
4.79
4.90
4.78
4.56
4.33
4.12
3.95
3.85
3.82
3.87
3.88
3.79
3.52
3.03
2.37
1.58
0.72
-0.21
-1.27
-2.44
-3.70
-4.97
-6.17
-7.29
-8.36
-9.46
-10.59
-11.69
-12.70
-13.57
-14.37
-15.15
-15.95
-16.57
-16.72
-16.08
-14.52
-12.12
-9.14
-5.91
-2.63
0.47
3.21
5.28
6.47
6.72
6.35
5.98
6.27
7.59
9.84
12.48
14.80
16.22
16.53
15.81
14.37
12.56
10.68
8.98
7.61
6.65
6.11
5.87
5.71
5.45
4.99
4.38
3.73
3.18
2.74
2.37
1.95
1.39
0.71
-0.10
-1.03
-2.21
-3.78
-5.84
-8.33
-11.02
-13.56
-15.54
-16.73
-17.05
-16.60
-15.60
-14.30
-12.90
-11.47
-9.96
-8.21
-6.05
-3.48
-0.62
2.19
4.61
6.42
7.65
8.53
9.33
10.25
11.27
12.26
13.09
13.73
14.24
14.72
15.22
15.71
16.06
16.19
16.11
15.88
15.58
15.25
14.80
14.10
12.96
11.31
9.15
6.68
4.18
1.94
0.20
-0.92
-1.50
-1.75
-1.90
-2.18
-2.73
-3.57
-4.59
-5.61
-6.50
-7.16
-7.71
-8.33
-9.27
-10.69
-12.60
-14.80
-16.97
-18.73
-19.73
-19.79
-18.93
-17.32
-15.25
-12.96
-10.57
-8.13
-5.73
-3.51
-1.68
-0.34
0.56
1.32
2.27
3.63
5.33
7.05
8.41
9.20
9.53
9.72
10.17
11.10
12.43
13.89
15.10
15.82
15.94
15.52
14.69
13.56
12.21
10.67
9.06
7.53
6.25
5.30
4.61
3.96
3.15
2.06
0.76
-0.58
-1.76
-2.69
-3.40
-3.99
-4.54
-5.10
-5.61
-6.05
-6.40
-6.74
-7.21
-7.96
-9.11
-10.65
-12.45
-14.29
-15.89
-17.01
-17.55
-17.49
-16.91
-15.89
-14.50
-12.79
-10.87
-8.79
-6.69
-4.68
-2.86
-1.33
-0.18
0.58
1.03
1.36
1.80
2.52
3.60
4.96
6.43
7.82
8.90
9.59
9.84
9.78
9.57
9.43
9.45
9.55
9.47
8.95
7.88
6.39
4.85
3.67
3.12
3.19
3.69
4.31
4.87
5.31
5.69
6.10
6.55
6.95
7.04
6.56
5.28
3.14
0.28
-2.94
-6.14
-9.01
-11.41
-13.38
-15.10
-16.70
-18.21
-19.49
-20.30
-20.38
-19.59
-17.94
-15.63
-12.96
-10.21
-7.56
-5.07
-2.70
-0.39
1.79
3.68
5.06
5.84
6.09
6.03
6.00
6.17
6.54
6.89
7.01
6.82
6.47
6.31
6.69
7.73
9.25
10.80
11.90
12.17
11.48
9.95
7.83
5.36
2.74
0.13
-2.31
-4.44
-6.05
-7.06
-7.54
-7.68
-7.74
-7.96
-8.42
-9.13
-9.99
-10.92
-11.86
-12.80
-13.65
-14.31
-14.59
-14.29
-13.37
-11.88
-9.96
-7.76
-5.41
-2.98
-0.52
1.85
4.03
5.91
7.44
8.70
9.74
10.65
11.49
12.26
12.99
13.68
14.31
14.77
14.90
14.57
13.70
12.42
10.92
9.40
7.99
6.66
5.39
4.12
2.90
1.78
0.80
-0.07
-0.84
-1.51
-2.04
-2.41
-2.64
-2.88
-3.33
-4.14
-5.32
-6.72
-8.13
-9.41
-10.53
-11.58
-12.63
-13.64
-14.42
-14.74
-14.48
-13.68
-12.52
-11.26
-10.05
-8.91
-7.75
-6.49
-5.11
-3.69
-2.31
-1.01
0.25
1.53
2.89
4.39
6.05
7.83
9.61
11.24
12.51
13.32
13.66
13.61
13.33
12.90
12.30
11.47
10.42
9.26
8.29
7.73
7.64
7.84
7.93
7.56
6.56
4.99
3.16
1.35
-0.25
-1.59
-2.72
-3.61
-4.19
-4.39
-4.21
-3.83
-3.57
-3.77
-4.62
-6.07
-7.84
-9.51
-10.69
-11.16
-10.90
-10.10
-9.10
-8.18
-7.50
-6.99
-6.45
-5.60
-4.32
-2.65
-0.79
1.00
2.58
3.89
4.99
5.89
6.50
6.64
6.18
5.18
3.94
2.90
2.47
2.82
3.85
5.27
6.74
8.05
9.14
10.11
10.99
11.70
12.00
11.65
10.50
8.70
6.61
4.72
3.40
2.76
2.68
2.83
2.88
2.64
2.03
1.10
-0.07
-1.42
-2.95
-4.67
-6.58
-8.71
-11.06
-13.62
-16.24
-18.64
-20.44
-21.27
-20.89
-19.37
-17.08
-14.53
-12.26
-10.58
-9.49
-8.70
-7.82
-6.48
-4.49
-1.79
1.50
5.18
8.98
12.47
15.20
16.76
16.94
15.88
13.98
11.88
10.10
8.90
8.19
7.74
7.36
6.98
6.61
6.31
5.97
5.42
4.49
3.18
1.74
0.50
-0.26
-0.51
-0.46
-0.42
-0.67
-1.30
-2.26
-3.40
-4.61
-5.80
-6.92
-7.93
-8.82
-9.60
-10.34
-11.15
-12.14
-13.35
-14.72
-16.05
-17.07
-17.54
-17.29
-16.26
-14.56
-12.35
-9.84
-7.24
-4.73
-2.49
-0.67
0.63
1.46
1.95
2.32
2.78
3.42
4.28
5.31
6.46
7.63
8.69
9.52
10.04
10.24
10.25
10.22
10.22
10.15
9.80
8.98
7.69
6.19
4.90
4.11
3.85
3.84
3.66
3.02
1.84
0.34
-1.12
-2.27
-3.00
-3.40
-3.68
-3.99
-4.39
-4.86
-5.41
-6.05
-6.81
-7.60
-8.24
-8.45
-7.97
-6.74
-4.88
-2.66
-0.30
2.01
4.16
6.04
7.49
8.38
8.68
8.53
8.22
8.03
8.14
8.54
9.11
9.67
10.12
10.45
10.62
10.65
10.47
10.05
9.35
8.42
7.29
6.05
4.83
3.74
2.84
2.06
1.24
0.18
-1.18
-2.80
-4.48
-5.93
-6.99
-7.62
-7.95
-8.16
-8.41
-8.76
-9.19
-9.66
-10.09
-10.44
-10.70
-10.81
-10.73
-10.37
-9.70
-8.72
-7.53
-6.32
-5.31
-4.60
-4.13
-3.68
-2.95
-1.72
0.01
2.02
4.04
5.79
7.18
8.24
9.01
9.53
9.79
9.85
9.85
10.02
10.53
11.36
12.34
13.10
13.36
12.98
11.99
10.52
8.61
6.23
3.30
-0.09
-3.63
-6.79
-9.09
-10.27
-10.42
-9.86
-9.07
-8.36
-7.91
-7.72
-7.74
-7.99
-8.45
-9.14
-10.03
-10.98
-11.81
-12.35
-12.45
-12.01
-10.98
-9.37
-7.30
-4.93
-2.48
-0.21
1.71
3.10
3.91
4.26
4.38
4.57
5.09
5.98
7.08
8.09
8.78
9.06
9.08
9.03
9.04
9.11
9.16
9.14
9.10
9.22
9.59
10.10
10.44
10.27
9.39
7.88
6.10
4.47
3.28
2.55
2.09
1.62
0.94
0.04
-0.98
-1.94
-2.76
-3.45
-4.18
-5.17
-6.59
-8.45
-10.58
-12.67
-14.42
-15.63
-16.34
-16.73
-16.90
-16.81
-16.29
-15.13
-13.33
-11.13
-8.92
-7.05
-5.59
-4.35
-3.00
-1.27
0.85
3.13
5.30
7.19
8.80
10.27
11.69
13.00
13.95
14.25
13.75
12.60
11.17
9.96
9.35
9.54
10.41
11.73
13.21
14.60
15.68
16.29
16.28
15.63
14.45
12.95
11.34
9.77
8.23
6.68
5.07
3.45
1.89
0.45
-0.96
-2.44
-4.10
-5.84
-7.43
-8.60
-9.19
-9.32
-9.29
-9.44
-9.91
-10.65
-11.47
-12.20
-12.77
-13.19
-13.47
-13.51
-13.19
-12.42
-11.23
-9.82
-8.42
-7.17
-6.06
-4.90
-3.54
-1.96
-0.26
1.37
2.75
3.87
4.78
5.58
6.32
6.95
7.38
7.53
7.44
7.24
7.11
7.17
7.39
7.69
7.96
8.18
8.42
8.78
9.27
9.78
10.02
9.76
8.89
7.51
5.83
4.04
2.21
0.29
-1.80
-4.02
-6.18
-7.96
-9.12
-9.55
-9.36
-8.78
-8.15
-7.72
-7.65
-8.04
-8.91
-10.22
-11.87
-13.64
-15.25
-16.38
-16.73
-16.14
-14.66
-12.56
-10.22
-7.98
-6.11
-4.66
-3.61
-2.87
-2.33
-1.89
-1.41
-0.83
-0.08
0.77
1.58
2.23
2.73
3.18
3.78
4.70
5.94
7.40
8.91
10.36
11.70
12.87
13.81
14.36
14.37
13.84
12.93
11.91
11.07
10.56
10.35
10.32
10.32
10.29
10.23
10.18
10.12
9.91
9.29
8.07
6.13
3.50
0.36
-3.02
-6.36
-9.34
-11.65
-13.09
-13.57
-13.22
-12.28
-11.04
-9.74
-8.51
-7.39
-6.37
-5.42
-4.46
-3.46
-2.38
-1.18
0.08
1.31
2.41
3.32
4.02
4.52
4.84
4.98
4.93
4.66
4.15
3.34
2.19
0.67
-1.09
-2.84
-4.30
-5.25
-5.69
-5.77
-5.75
-5.80
-5.91
-5.90
-5.58
-4.90
-3.97
-3.04
-2.33
-2.00
-2.03
-2.28
-2.62
-2.94
-3.26
-3.66
-4.26
-5.14
-6.22
-7.27
-7.97
-8.06
-7.46
-6.35
-5.06
-3.92
-3.12
-2.64
-2.30
-1.93
-1.40
-0.63
0.44
1.90
3.78
6.07
8.58
11.06
13.16
14.66
15.51
15.77
15.65
15.39
15.17
15.12
15.33
15.84
16.64
17.77
19.17
20.78
22.43
23.80
24.56
24.40
23.17
20.96
18.04
14.78
11.53
8.48
5.67
2.94
0.02
-3.31
-7.22
-11.60
-16.12
-20.23
-23.39
-25.28
-25.92
-25.62
-24.78
-23.65
-22.24
-20.33
-17.75
-14.46
-10.70
-6.85
-3.29
-0.31
1.92
3.32
3.83
3.51
2.55
1.31
0.24
-0.31
-0.20
0.43
1.21
1.77
1.87
1.49
0.76
-0.15
-1.17
-2.35
-3.76
-5.40
-7.10
-8.52
-9.26
-9.08
-8.04
-6.49
-4.96
-3.97
-3.81
-4.52
-5.91
-7.64
-9.40
-11.00
-12.45
-13.95
-15.76
-18.09
-20.91
-23.97
-26.81
-28.96
-30.11
-30.21
-29.41
-27.91
-25.90
-23.44
-20.60
-17.52
-14.37
-11.38
-8.67
-6.26
-4.05
-1.95
0.17
2.30
4.40
6.33
7.99
9.29
10.19
10.74
11.04
11.14
11.12
10.99
10.73
10.40
10.10
10.02
10.35
11.19
12.47
13.95
15.25
16.00
15.97
15.19
13.88
12.40
11.08
10.10
9.45
9.03
8.75
8.55
8.47
8.49
8.60
8.72
8.77
8.75
8.65
8.49
8.27
8.00
7.63
7.07
6.25
5.08
3.57
1.90
0.41
-0.48
-0.47
0.52
2.20
4.05
5.51
6.21
6.02
5.02
3.41
1.36
-0.99
-3.49
-5.94
-8.09
-9.73
-10.75
-11.18
-11.12
-10.66
-9.82
-8.64
-7.11
-5.32
-3.44
-1.61
0.06
1.58
3.01
4.42
5.81
7.14
8.29
9.13
9.60
9.68
9.35
8.59
7.31
5.46
3.08
0.29
-2.65
-5.45
-7.95
-10.11
-12.01
-13.77
-15.40
-16.75
-17.60
-17.75
-17.15
-15.98
-14.51
-13.07
-11.89
-11.06
-10.53
-10.11
-9.54
-8.60
-7.13
-5.16
-2.81
-0.34
1.96
3.90
5.42
6.56
7.47
8.23
8.88
9.40
9.75
9.91
9.93
9.86
9.80
9.78
9.84
9.95
10.02
9.92
9.51
8.74
7.65
6.42
5.28
4.40
3.90
3.70
3.67
3.64
3.49
3.15
2.60
1.77
0.63
-0.87
-2.69
-4.72
-6.76
-8.61
-10.11
-11.17
-11.77
-11.89
-11.48
-10.52
-8.94
-6.86
-4.51
-2.22
-0.30
1.06
1.84
2.21
2.47
2.90
3.67
4.75
5.90
6.74
6.98
6.56
5.68
4.78
4.23
4.20
4.55
4.95
5.16
5.19
5.26
5.64
6.43
7.46
8.38
8.80
8.59
7.78
6.67
5.55
4.58
3.78
2.98
1.96
0.60
-1.04
-2.73
-4.11
-4.94
-5.23
-5.20
-5.24
-5.65
-6.48
-7.57
-8.59
-9.26
-9.49
-9.38
-9.12
-8.89
-8.73
-8.51
-8.08
-7.30
-6.15
-4.70
-3.14
-1.56
0.02
1.71
3.70
6.09
8.79
11.49
13.77
15.28
15.91
15.74
15.02
13.95
12.63
11.12
9.52
8.09
7.17
6.99
7.55
8.56
9.58
10.20
10.25
9.75
8.88
7.84
6.77
5.72
4.67
3.62
2.55
1.52
0.61
-0.10
-0.56
-0.76
-0.80
-0.96
-1.62
-3.15
-5.63
-8.86
-12.32
-15.39
-17.60
-18.83
-19.26
-19.17
-18.71
-17.70
-15.81
-12.80
-8.77
-4.22
0.11
3.60
5.99
7.38
8.06
8.34
8.34
8.05
7.43
6.51
5.44
4.45
3.74
3.41
3.43
3.69
4.08
4.43
4.66
4.67
4.47
4.10
3.65
3.19
2.76
2.29
1.73
1.02
0.15
-0.79
-1.68
-2.43
-2.96
-3.26
-3.39
-3.41
-3.45
-3.58
-3.80
-4.09
-4.39
-4.70
-5.08
-5.66
-6.59
-7.88
-9.40
-10.90
-12.11
-12.82
-13.01
-12.73
-12.08
-11.08
-9.70
-7.87
-5.60
-3.06
-0.48
1.90
3.93
5.60
7.01
8.20
9.15
9.82
10.16
10.22
10.10
9.86
9.53
9.09
8.54
7.97
7.49
7.25
7.31
7.60
8.01
8.36
8.50
8.31
7.69
6.59
5.01
3.10
1.09
-0.71
-2.11
-3.07
-3.69
-4.17
-4.67
-5.21
-5.66
-5.88
-5.75
-5.30
-4.77
-4.38
-4.35
-4.73
-5.45
-6.35
-7.26
-8.00
-8.48
-8.58
-8.27
-7.64
-6.83
-6.04
-5.44
-5.09
-4.91
-4.79
-4.60
-4.31
-3.93
-3.54
-3.15
-2.72
-2.10
-1.20
-0.06
1.19
2.30
3.07
3.45
3.59
3.72
3.98
4.38
4.73
4.84
4.60
4.12
3.58
3.18
3.02
3.03
3.10
3.10
3.03
2.94
2.92
2.92
2.83
2.46
1.68
0.52
-0.91
-2.41
-3.83
-5.11
-6.23
-7.19
-7.97
-8.44
-8.53
-8.18
-7.46
-6.52
-5.51
-4.59
-3.83
-3.25
-2.79
-2.31
-1.70
-0.91
0.02
0.97
1.85
2.60
3.27
3.89
4.51
5.09
5.58
5.99
6.38
6.89
7.62
8.59
9.74
10.89
11.83
12.37
12.37
11.75
10.59
9.06
7.40
5.85
4.50
3.26
1.99
0.56
-0.98
-2.42
-3.46
-3.90
-3.72
-3.12
-2.39
-1.80
-1.53
-1.59
-1.84
-2.12
-2.31
-2.43
-2.71
-3.43
-4.91
-7.22
-10.14
-13.15
-15.59
-16.93
-16.98
-15.92
-14.18
-12.22
-10.38
-8.81
-7.56
-6.68
-6.12
-5.82
-5.62
-5.34
-4.83
-4.03
-2.93
-1.67
-0.34
0.97
2.26
3.49
4.68
5.77
6.71
7.42
7.88
8.09
8.07
7.89
7.63
7.39
7.30
7.45
7.92
8.67
9.52
10.27
10.65
10.47
9.65
8.21
6.33
4.22
2.16
0.37
-1.06
-2.19
-3.20
-4.32
-5.65
-7.12
-8.54
-9.63
-10.30
-10.67
-11.03
-11.69
-12.80
-14.20
-15.55
-16.43
-16.52
-15.73
-14.16
-12.05
-9.66
-7.23
-4.87
-2.65
-0.58
1.33
3.07
4.57
5.77
6.65
7.26
7.69
8.02
8.26
8.31
8.04
7.41
6.56
5.74
5.22
5.09
5.27
5.53
5.63
5.48
5.08
4.55
4.01
3.53
3.18
2.96
2.90
2.98
3.14
3.24
3.16
2.78
2.09
1.17
0.15
-0.80
-1.65
-2.44
-3.34
-4.50
-5.93
-7.52
-9.01
-10.18
-10.91
-11.30
-11.55
-11.86
-12.28
-12.66
-12.74
-12.27
-11.14
-9.35
-7.09
-4.56
-2.02
0.28
2.14
3.48
4.37
5.04
5.75
6.73
8.05
9.58
11.12
12.43
13.32
13.67
13.38
12.42
10.84
8.86
6.80
4.99
3.67
2.86
2.37
1.97
1.44
0.72
-0.17
-1.19
-2.32
-3.50
-4.65
-5.57
-6.08
-6.05
-5.54
-4.79
-4.14
-3.92
-4.31
-5.31
-6.69
-8.09
-9.09
-9.32
-8.59
-7.00
-4.88
-2.69
-0.85
0.45
1.32
1.98
2.73
3.72
4.93
6.12
7.01
7.34
7.02
6.12
4.81
3.32
1.81
0.37
-0.95
-2.08
-2.92
-3.32
-3.14
-2.44
-1.43
-0.53
-0.10
-0.37
-1.25
-2.49
-3.75
-4.73
-5.26
-5.26
-4.67
-3.47
-1.77
0.13
1.73
2.53
2.26
1.06
-0.63
-2.21
-3.23
-3.56
-3.34
-2.79
-2.16
-1.62
-1.25
-1.17
-1.42
-1.95
-2.59
-3.06
-3.17
-2.83
-2.08
-1.06
0.17
1.56
3.08
4.66
6.15
7.44
8.48
9.35
10.12
10.86
11.51
11.91
11.89
11.38
10.44
9.29
8.18
7.30
6.70
6.28
5.92
5.48
5.00
4.55
4.29
4.34
4.68
5.22
5.79
6.22
6.42
6.30
5.84
4.96
3.56
1.53
-1.09
-4.18
-7.39
-10.35
-12.76
-14.53
-15.78
-16.71
-17.44
-17.90
-17.87
-17.10
-15.55
-13.42
-11.09
-8.90
-7.03
-5.42
-3.87
-2.23
-0.50
1.21
2.77
4.08
5.19
6.20
7.19
8.16
9.02
9.61
9.77
9.47
8.78
7.98
7.37
7.18
7.48
8.05
8.52
8.57
8.08
7.23
6.35
5.78
5.63
5.78
5.96
5.90
5.50
4.85
4.11
3.43
2.86
2.32
1.73
1.02
0.17
-0.83
-1.95
-3.21
-4.59
-6.08
-7.66
-9.27
-10.87
-12.32
-13.47
-14.07
-13.94
-12.99
-11.30
-9.11
-6.70
-4.35
-2.19
-0.25
1.59
3.41
5.26
7.07
8.65
9.81
10.36
10.19
9.32
7.90
6.20
4.62
3.45
2.88
2.88
3.30
3.94
4.63
5.28
5.84
6.25
6.40
6.19
5.61
4.72
3.72
2.79
2.02
1.42
1.01
0.80
0.87
1.33
2.14
3.16
4.11
4.75
4.92
4.59
3.85
2.79
1.48
-0.10
-1.96
-4.05
-6.20
-8.24
-9.99
-11.38
-12.50
-13.51
-14.60
-15.79
-16.80
-17.21
-16.53
-14.53
-11.36
-7.57
-3.90
-0.94
1.05
2.26
3.08
3.94
5.00
6.24
7.39
8.20
8.45
8.05
7.06
5.68
4.18
2.84
1.88
1.38
1.28
1.50
1.98
2.68
3.56
4.50
5.24
5.56
5.30
4.44
3.12
1.50
-0.24
-1.91
-3.33
-4.27
-4.65
-4.54
-4.24
-4.10
-4.39
-5.09
-6.02
-6.96
-7.83
-8.71
-9.72
-10.76
-11.51
-11.48
-10.32
-8.04
-5.12
-2.27
-0.14
0.96
1.17
0.92
0.72
0.89
1.52
2.43
3.40
4.28
5.01
5.66
6.28
6.84
7.16
6.95
6.05
4.53
2.74
1.22
0.45
0.62
1.56
2.82
3.94
4.71
5.14
5.47
5.82
6.13
6.12
5.47
4.10
2.17
0.06
-1.85
-3.39
-4.63
-5.83
-7.32
-9.30
-11.71
-14.30
-16.60
-18.15
-18.59
-17.77
-15.82
-13.11
-10.03
-6.87
-3.77
-0.73
2.28
5.23
8.00
10.49
12.62
14.38
15.74
16.61
16.88
16.41
15.24
13.62
12.04
11.00
10.85
11.57
12.76
13.82
14.20
13.66
12.29
10.54
8.94
7.90
7.59
7.85
8.32
8.64
8.59
8.17
7.57
6.96
6.39
5.75
4.79
3.32
1.33
-0.92
-3.10
-4.94
-6.39
-7.57
-8.69
-9.87
-11.07
-12.18
-13.09
-13.81
-14.55
-15.56
-17.03
-18.97
-21.08
-22.84
-23.69
-23.26
-21.52
-18.80
-15.63
-12.56
-9.94
-7.91
-6.41
-5.24
-4.16
-2.91
-1.22
1.01
3.74
6.74
9.61
11.92
13.41
13.94
13.58
12.60
11.34
10.18
9.37
9.01
9.01
9.12
9.17
9.06
8.83
8.55
8.21
7.82
7.37
6.93
6.66
6.65
6.81
6.98
6.92
6.52
5.85
5.06
4.26
3.39
2.28
0.81
-0.94
-2.74
-4.33
-5.55
-6.52
-7.48
-8.67
-10.19
-11.92
-13.65
-15.11
-16.10
-16.43
-15.98
-14.67
-12.54
-9.78
-6.74
-3.80
-1.27
0.74
2.24
3.34
4.17
4.80
5.21
5.34
5.11
4.44
3.36
2.05
0.80
-0.06
-0.25
0.31
1.57
3.36
5.42
7.56
9.59
11.35
12.70
13.55
13.91
13.90
13.76
13.58
13.36
12.91
12.03
10.64
8.84
6.91
5.19
3.90
3.02
2.31
1.44
0.11
-1.80
-4.14
-6.59
-8.76
-10.28
-10.95
-10.70
-9.59
-7.78
-5.46
-2.88
-0.29
2.01
3.83
5.07
5.82
6.26
6.56
6.90
7.32
7.77
8.14
8.24
7.91
7.06
5.76
4.27
2.95
2.08
1.73
1.72
1.75
1.61
1.27
0.90
0.66
0.52
0.30
-0.27
-1.28
-2.55
-3.77
-4.65
-5.17
-5.53
-6.08
-7.07
-8.54
-10.32
-12.26
-14.23
-16.31
-18.56
-20.93
-23.17
-24.83
-25.48
-24.89
-23.08
-20.36
-17.20
-14.00
-11.02
-8.35
-5.91
-3.59
-1.24
1.20
3.77
6.41
8.93
11.11
12.70
13.62
13.91
13.80
13.52
13.24
13.06
12.98
13.01
13.17
13.52
14.07
14.74
15.41
15.84
15.87
15.46
14.66
13.59
12.36
10.99
9.46
7.74
5.80
3.73
1.65
-0.28
-2.04
-3.68
-5.33
-7.12
-9.04
-11.01
-12.90
-14.65
-16.31
-18.03
-19.91
-21.90
-23.81
-25.25
-25.78
-25.05
-23.02
-19.94
-16.35
-12.91
-10.10
-8.07
-6.57
-5.10
-3.18
-0.60
2.51
5.75
8.69
11.07
12.86
14.20
15.21
15.95
16.38
16.49
16.28
15.97
15.73
15.71
15.92
16.18
16.20
15.76
14.80
13.44
12.02
10.87
10.19
9.93
9.89
9.79
9.49
9.01
8.41
7.75
6.98
5.97
4.64
3.03
1.34
-0.19
-1.36
-2.14
-2.70
-3.27
-4.09
-5.26
-6.74
-8.43
-10.19
-11.98
-13.85
-15.83
-17.90
-19.85
-21.36
-22.17
-22.21
-21.61
-20.67
-19.55
-18.22
-16.48
-14.13
-11.12
-7.74
-4.36
-1.37
1.13
3.26
5.29
7.41
9.54
11.51
13.04
14.00
14.44
14.53
14.39
14.08
13.52
12.64
11.52
10.40
9.61
9.32
9.40
9.43
8.88
7.46
5.32
3.01
1.20
0.30
0.28
0.72
1.05
0.87
0.12
-0.99
-2.18
-3.31
-4.42
-5.61
-7.01
-8.53
-9.96
-11.10
-11.86
-12.25
-12.48
-12.71
-13.01
-13.33
-13.40
-13.03
-12.10
-10.63
-8.80
-6.80
-4.77
-2.74
-0.73
1.23
3.05
4.67
6.04
7.20
8.25
9.27
10.25
11.09
11.66
11.88
11.76
11.39
10.88
10.28
9.65
9.06
8.54
8.15
7.88
7.65
7.31
6.72
5.80
4.68
3.52
2.62
2.13
2.02
2.14
2.22
2.06
1.58
0.79
-0.25
-1.54
-3.13
-5.06
-7.27
-9.56
-11.67
-13.42
-14.78
-15.93
-17.10
-18.40
-19.75
-20.85
-21.32
-20.83
-19.26
-16.76
-13.67
-10.49
-7.61
-5.34
-3.69
-2.50
-1.47
-0.29
1.24
3.09
5.01
6.62
7.50
7.41
6.36
4.62
2.65
0.91
-0.18
-0.33
0.56
2.46
5.16
8.25
11.25
13.64
15.08
15.43
14.83
13.59
12.09
10.61
9.33
8.28
7.41
6.65
5.93
5.17
4.27
3.10
1.66
-0.04
-1.82
-3.41
-4.64
-5.47
-6.03
-6.56
-7.23
-8.08
-9.01
-9.89
-10.66
-11.43
-12.36
-13.58
-15.06
-16.54
-17.65
-18.05
-17.57
-16.31
-14.54
-12.59
-10.70
-8.93
-7.16
-5.27
-3.16
-0.90
1.32
3.30
5.01
6.50
7.87
9.22
10.50
11.57
12.28
12.52
12.36
11.94
11.51
11.29
11.37
11.71
12.14
12.48
12.55
12.32
11.86
11.25
10.54
9.73
8.72
7.42
5.73
3.68
1.30
-1.31
-4.04
-6.69
-9.02
-10.76
-11.69
-11.73
-11.06
-10.06
-9.14
-8.67
-8.81
-9.54
-10.67
-11.94
-13.01
-13.58
-13.42
-12.41
-10.63
-8.27
-5.63
-3.10
-0.93
0.76
2.00
2.96
3.87
4.85
5.93
6.99
7.91
8.59
9.02
9.25
9.28
9.06
8.42
7.36
6.04
4.81
4.07
4.01
4.49
5.07
5.28
4.82
3.78
2.54
1.52
0.94
0.71
0.49
-0.06
-1.08
-2.45
-3.82
-4.95
-5.77
-6.51
-7.56
-9.24
-11.60
-14.38
-17.06
-19.10
-20.11
-19.99
-18.85
-16.89
-14.32
-11.27
-7.85
-4.25
-0.69
2.53
5.20
7.30
8.99
10.46
11.86
13.12
13.99
14.24
13.79
12.82
11.65
10.66
10.07
9.87
9.91
10.03
10.09
10.06
9.84
9.39
8.62
7.56
6.34
5.24
4.53
4.37
4.78
5.48
6.13
6.30
5.69
4.19
1.87
-0.96
-3.94
-6.75
-9.15
-11.08
-12.62
-13.91
-15.14
-16.47
-17.99
-19.68
-21.30
-22.53
-22.97
-22.31
-20.52
-17.81
-14.70
-11.79
-9.58
-8.32
-7.88
-7.84
-7.62
-6.74
-4.94
-2.30
0.81
3.91
6.56
8.57
9.94
10.91
11.74
12.65
13.71
14.89
16.01
16.77
16.85
16.03
14.32
11.96
9.42
7.23
5.81
5.32
5.63
6.38
7.10
7.43
7.23
6.56
5.67
4.86
4.34
4.10
3.91
3.45
2.43
0.85
-1.06
-2.88
-4.35
-5.43
-6.32
-7.38
-8.88
-10.88
-13.19
-15.46
-17.28
-18.33
-18.41
-17.49
-15.68
-13.28
-10.66
-8.22
-6.30
-5.03
-4.30
-3.76
-3.04
-1.83
-0.03
2.24
4.71
7.11
9.22
10.93
12.23
13.16
13.77
14.04
13.97
13.56
12.94
12.29
11.83
11.73
11.96
12.32
12.55
12.43
11.94
11.24
10.57
10.07
9.66
9.06
7.92
6.08
3.67
1.16
-0.89
-2.05
-2.27
-1.92
-1.52
-1.55
-2.18
-3.29
-4.59
-5.87
-7.07
-8.31
-9.75
-11.44
-13.28
-15.08
-16.59
-17.56
-17.88
-17.55
-16.71
-15.59
-14.39
-13.22
-12.00
-10.63
-9.05
-7.36
-5.81
-4.62
-3.84
-3.22
-2.39
-1.03
0.84
2.94
4.82
6.14
6.85
7.14
7.36
7.82
8.60
9.64
10.71
11.53
11.92
11.76
11.11
10.05
8.77
7.40
6.01
4.67
3.39
2.27
1.39
0.81
0.44
0.12
-0.42
-1.32
-2.49
-3.69
-4.59
-5.11
-5.40
-5.83
-6.69
-8.00
-9.37
-10.23
-10.13
-8.94
-6.96
-4.70
-2.62
-1.05
-0.08
0.28
0.17
-0.27
-0.79
-1.03
-0.70
0.31
1.84
3.46
4.73
5.33
5.26
4.84
4.47
4.55
5.23
6.41
7.83
9.18
10.25
10.99
11.45
11.72
11.83
11.76
11.50
11.06
10.56
10.11
9.79
9.54
9.23
8.68
7.79
6.56
5.10
3.55
1.94
0.14
-2.04
-4.78
-8.05
-11.57
-14.92
-17.69
-19.68
-20.94
-21.68
-22.14
-22.38
-22.28
-21.69
-20.50
-18.77
-16.73
-14.70
-12.94
-11.56
-10.53
-9.72
-8.97
-8.13
-7.15
-5.96
-4.46
-2.48
0.11
3.26
6.68
9.89
12.41
13.98
14.69
14.90
15.06
15.40
15.91
16.33
16.37
15.88
14.89
13.61
12.22
10.86
9.57
8.28
6.93
5.54
4.16
2.95
2.03
1.45
1.15
0.91
0.48
-0.35
-1.62
-3.23
-4.91
-6.40
-7.50
-8.21
-8.62
-8.89
-9.12
-9.40
-9.76
-10.21
-10.75
-11.36
-11.95
-12.38
-12.50
-12.11
-11.14
-9.63
-7.75
-5.78
-3.96
-2.44
-1.19
-0.05
1.15
2.52
4.08
5.71
7.23
8.44
9.23
9.54
9.44
9.03
8.50
7.99
7.64
7.49
7.54
7.77
8.12
8.52
8.90
9.12
9.03
8.50
7.58
6.45
5.42
4.81
4.78
5.28
6.05
6.76
7.15
7.06
6.51
5.60
4.48
3.21
1.92
0.64
-0.56
-1.66
-2.68
-3.76
-5.01
-6.54
-8.36
-10.36
-12.45
-14.51
-16.37
-17.84
-18.64
-18.57
-17.55
-15.81
-13.71
-11.61
-9.70
-7.95
-6.18
-4.26
-2.25
-0.37
1.15
2.26
3.11
3.95
4.93
5.97
6.76
6.93
6.34
5.12
3.73
2.70
2.41
2.99
4.19
5.51
6.44
6.65
6.13
5.15
4.13
3.35
2.88
2.57
2.17
1.51
0.59
-0.46
-1.42
-2.20
-2.80
-3.29
-3.78
-4.25
-4.70
-5.09
-5.51
-6.08
-6.92
-8.02
-9.26
-10.31
-10.81
-10.51
-9.39
-7.66
-5.76
-4.13
-3.08
-2.60
-2.51
-2.44
-2.12
-1.39
-0.29
1.04
2.47
3.94
5.45
6.99
8.48
9.80
10.78
11.29
11.27
10.80
10.06
9.23
8.46
7.77
7.05
6.21
5.16
3.98
2.92
2.27
2.24
2.83
3.73
4.49
4.69
4.13
2.88
1.24
-0.45
-2.03
-3.49
-5.01
-6.80
-8.88
-11.14
-13.33
-15.23
-16.77
-18.01
-19.02
-19.78
-20.10
-19.68
-18.29
-15.88
-12.73
-9.36
-6.35
-4.13
-2.81
-2.18
-1.82
-1.34
-0.54
0.52
1.65
2.68
3.60
4.53
5.62
6.85
8.09
9.09
9.72
10.03
10.21
10.47
10.87
11.33
11.70
11.90
11.99
12.05
12.19
12.35
12.31
11.89
10.93
9.48
7.75
5.93
4.20
2.50
0.69
-1.43
-3.94
-6.69
-9.27
-11.16
-11.92
-11.42
-9.96
-8.14
-6.62
-5.88
-6.04
-6.88
-8.03
-9.10
-9.87
-10.18
-10.02
-9.40
-8.31
-6.83
-5.11
-3.34
-1.70
-0.27
0.97
2.07
3.15
4.24
5.31
6.30
7.11
7.67
7.96
8.01
7.91
7.81
7.86
8.20
8.91
9.98
11.25
12.41
13.15
13.16
12.40
11.06
9.56
8.39
7.84
7.78
7.77
7.26
5.94
3.93
1.71
-0.16
-1.39
-2.10
-2.72
-3.68
-5.17
-6.96
-8.65
-9.92
-10.65
-10.95
-11.03
-11.04
-11.00
-10.91
-10.77
-10.70
-10.89
-11.43
-12.28
-13.18
-13.75
-13.58
-12.46
-10.46
-7.89
-5.20
-2.82
-1.01
0.22
1.04
1.73
2.52
3.58
4.97
6.54
8.10
9.37
10.14
10.36
10.17
9.78
9.39
9.05
8.78
8.57
8.49
8.64
9.03
9.47
9.66
9.31
8.37
7.08
5.83
4.95
4.50
4.29
4.04
3.56
2.80
1.88
0.92
0.00
-0.94
-1.99
-3.19
-4.62
-6.29
-8.23
-10.42
-12.72
-14.91
-16.65
-17.56
-17.39
-16.13
-14.00
-11.37
-8.66
-6.19
-4.08
-2.26
-0.56
1.17
3.01
4.91
6.71
8.18
9.14
9.48
9.30
8.80
8.25
7.86
7.69
7.64
7.54
7.27
6.84
6.34
5.90
5.52
5.11
4.51
3.61
2.50
1.41
0.59
0.20
0.17
0.30
0.32
0.00
-0.74
-1.87
-3.24
-4.69
-6.14
-7.63
-9.27
-11.23
-13.56
-16.06
-18.28
-19.69
-19.82
-18.58
-16.26
-13.44
-10.74
-8.55
-6.88
-5.56
-4.26
-2.83
-1.22
0.55
2.45
4.50
6.70
9.02
11.31
13.41
15.18
16.59
17.67
18.47
18.99
19.18
18.94
18.22
17.11
15.76
14.37
12.98
11.63
10.22
8.72
7.18
5.75
4.61
3.83
3.31
2.87
2.22
1.19
-0.22
-1.82
-3.41
-4.76
-5.79
-6.54
-7.14
-7.70
-8.27
-8.91
-9.69
-10.69
-12.00
-13.65
-15.46
-17.07
-18.03
-17.99
-16.93
-15.06
-12.79
-10.53
-8.44
-6.53
-4.71
-2.88
-1.02
0.81
2.58
4.26
5.87
7.42
8.85
10.08
11.06
11.81
12.35
12.73
13.00
13.17
13.27
13.23
12.96
12.27
11.00
9.15
6.89
4.62
2.76
1.61
1.17
1.21
1.36
1.37
1.15
0.79
0.44
0.21
0.13
0.12
0.05
-0.24
-0.91
-2.09
-3.84
-6.05
-8.49
-10.80
-12.59
-13.60
-13.81
-13.46
-12.93
-12.60
-12.71
-13.27
-14.04
-14.64
-14.64
-13.75
-11.92
-9.36
-6.44
-3.63
-1.27
0.52
1.81
2.84
3.88
5.03
6.26
7.50
8.67
9.74
10.78
11.73
12.39
12.53
11.91
10.55
8.72
6.90
5.59
5.10
5.46
6.48
7.82
9.12
10.03
10.26
9.64
8.23
6.33
4.42
2.92
2.05
1.64
1.30
0.65
-0.46
-1.87
-3.24
-4.30
-5.03
-5.66
-6.53
-7.88
-9.66
-11.64
-13.45
-14.79
-15.57
-15.79
-15.62
-15.19
-14.55
-13.67
-12.41
-10.71
-8.60
-6.27
-3.98
-1.92
-0.03
1.85
3.94
6.26
8.63
10.72
12.26
13.22
13.74
14.09
14.42
14.78
15.01
14.97
14.51
13.65
12.53
11.33
10.23
9.34
8.64
8.02
7.37
6.59
5.69
4.78
3.92
3.05
2.01
0.57
-1.37
-3.70
-6.10
-8.21
-9.80
-10.87
-11.62
-12.37
-13.33
-14.55
-15.88
-17.02
-17.70
-17.70
-17.04
-15.82
-14.25
-12.52
-10.78
-9.13
-7.57
-6.07
-4.57
-3.11
-1.71
-0.44
0.68
1.75
2.87
4.14
5.51
6.90
8.10
9.01
9.61
9.98
10.26
10.52
10.74
10.87
10.86
10.73
10.58
10.48
10.42
10.34
10.10
9.59
8.75
7.62
6.32
4.97
3.65
2.37
1.08
-0.32
-1.87
-3.53
-5.19
-6.69
-7.83
-8.51
-8.71
-8.57
-8.34
-8.29
-8.68
-9.62
-11.05
-12.72
-14.29
-15.44
-15.93
-15.66
-14.62
-12.91
-10.69
-8.15
-5.52
-3.05
-0.93
0.69
1.78
2.44
2.82
3.10
3.48
4.05
4.81
5.73
6.79
7.94
9.22
10.56
11.91
13.04
13.77
13.98
13.72
13.25
12.89
12.83
13.03
13.15
12.73
11.53
9.67
7.62
5.98
5.14
5.05
5.35
5.50
5.15
4.22
2.92
1.54
0.25
-0.89
-1.95
-3.06
-4.30
-5.67
-7.19
-8.84
-10.65
-12.53
-14.42
-16.20
-17.74
-18.88
-19.39
-19.14
-18.15
-16.57
-14.68
-12.74
-10.86
-8.94
-6.83
-4.45
-1.88
0.66
2.92
4.77
6.30
7.64
8.86
9.88
10.55
10.71
10.41
9.87
9.42
9.32
9.66
10.36
11.14
11.75
11.99
11.73
10.97
9.80
8.34
6.77
5.30
4.05
3.08
2.30
1.57
0.75
-0.19
-1.24
-2.30
-3.31
-4.34
-5.49
-6.89
-8.57
-10.44
-12.32
-13.95
-15.08
-15.49
-15.07
-13.80
-11.87
-9.61
-7.39
-5.50
-4.01
-2.81
-1.69
-0.50
0.76
2.01
3.19
4.27
5.36
6.54
7.80
9.03
10.01
10.61
10.77
10.55
10.08
9.55
9.09
8.78
8.58
8.35
7.93
7.19
6.09
4.75
3.30
1.92
0.73
-0.24
-0.94
-1.34
-1.45
-1.33
-1.21
-1.30
-1.82
-2.82
-4.07
-5.27
-6.12
-6.51
-6.56
-6.49
-6.46
-6.59
-6.81
-7.05
-7.30
-7.66
-8.23
-9.00
-9.72
-10.07
-9.76
-8.70
-7.16
-5.52
-4.10
-3.07
-2.29
-1.58
-0.78
0.09
0.88
1.46
1.83
2.18
2.77
3.80
5.29
7.06
8.80
10.24
11.21
11.67
11.71
11.41
10.82
10.03
9.14
8.33
7.78
7.59
7.75
8.06
8.24
8.03
7.25
5.87
4.04
1.99
0.02
-1.58
-2.60
-3.06
-3.10
-3.05
-3.22
-3.84
-4.87
-6.10
-7.24
-8.08
-8.63
-9.07
-9.60
-10.29
-11.04
-11.62
-11.84
-11.73
-11.49
-11.43
-11.67
-12.09
-12.33
-12.04
-11.04
-9.43
-7.53
-5.72
-4.21
-3.02
-2.01
-0.95
0.37
2.02
3.99
6.12
8.23
10.11
11.58
12.54
12.94
12.79
12.13
11.08
9.86
8.77
8.08
7.89
8.11
8.48
8.68
8.47
7.84
6.86
5.72
4.61
3.62
2.82
2.16
1.61
1.16
0.82
0.62
0.54
0.50
0.31
-0.15
-1.01
-2.20
-3.60
-5.09
-6.63
-8.26
-10.07
-12.03
-14.02
-15.82
-17.16
-17.79
-17.52
-16.22
-13.91
-10.80
-7.40
-4.28
-2.01
-0.80
-0.52
-0.73
-0.97
-0.90
-0.40
0.48
1.63
2.90
4.17
5.29
6.13
6.64
6.90
7.07
7.33
7.81
8.48
9.20
9.72
9.80
9.29
8.16
6.55
4.76
3.16
2.05
1.57
1.62
1.96
2.31
2.46
2.31
1.85
1.13
0.14
-1.10
-2.55
-4.11
-5.65
-6.99
-8.02
-8.75
-9.32
-9.99
-10.95
-12.19
-13.41
-14.12
-13.81
-12.27
-9.71
-6.72
-3.97
-1.98
-0.85
-0.30
0.09
0.65
1.44
2.32
3.02
3.41
3.53
3.59
3.82
4.33
5.09
5.89
6.48
6.73
6.71
6.70
7.03
7.94
9.31
10.82
11.96
12.36
11.95
10.92
9.65
8.42
7.32
6.26
5.10
3.84
2.62
1.64
1.07
0.83
0.65
0.11
-1.09
-3.02
-5.42
-7.83
-9.83
-11.22
-12.10
-12.79
-13.60
-14.67
-15.88
-17.00
-17.73
-17.85
-17.29
-16.03
-14.13
-11.76
-9.11
-6.45
-4.02
-1.86
0.08
1.89
3.62
5.16
6.43
7.38
8.11
8.79
9.50
10.17
10.59
10.61
10.26
9.78
9.41
9.24
9.13
8.80
8.09
7.11
6.25
5.93
6.33
7.30
8.32
8.87
8.58
7.40
5.54
3.39
1.27
-0.60
-2.19
-3.55
-4.70
-5.68
-6.50
-7.15
-7.67
-8.11
-8.48
-8.73
-8.75
-8.46
-7.89
-7.23
-6.77
-6.78
-7.36
-8.34
-9.37
-10.02
-10.01
-9.24
-7.81
-5.90
-3.81
-1.79
-0.09
1.06
1.54
1.42
0.89
0.29
-0.12
-0.17
0.18
0.84
1.65
2.48
3.16
3.54
3.52
3.13
2.51
1.95
1.74
2.05
2.84
3.87
4.80
5.35
5.37
4.91
4.15
3.34
2.69
2.38
2.40
2.64
2.93
3.13
3.12
2.92
2.61
2.28
1.94
1.48
0.77
-0.23
-1.45
-2.71
-3.79
-4.64
-5.38
-6.22
-7.29
-8.52
-9.67
-10.40
-10.47
-9.84
-8.66
-7.20
-5.68
-4.23
-2.89
-1.66
-0.53
0.51
1.42
2.22
2.93
3.55
4.05
4.43
4.68
4.84
5.00
5.22
5.55
6.03
6.66
7.41
8.23
9.00
9.59
9.89
9.79
9.28
8.42
7.32
6.14
4.96
3.85
2.76
1.59
0.24
-1.29
-2.90
-4.32
-5.24
-5.48
-5.13
-4.51
-4.05
-4.09
-4.67
-5.67
-6.88
-8.16
-9.51
-10.91
-12.26
-13.29
-13.68
-13.22
-11.96
-10.22
-8.37
-6.78
-5.58
-4.70
-3.95
-3.12
-2.04
-0.60
1.18
3.22
5.34
7.38
9.11
10.41
11.20
11.48
11.33
10.89
10.33
9.85
9.65
9.82
10.33
11.01
11.62
11.86
11.54
10.61
9.12
7.31
5.50
4.02
3.10
2.74
2.73
2.70
2.35
1.59
0.53
-0.62
-1.68
-2.62
-3.54
-4.55
-5.61
-6.55
-7.19
-7.40
-7.29
-7.16
-7.35
-8.07
-9.27
-10.66
-11.84
-12.54
-12.69
-12.52
-12.30
-12.23
-12.28
-12.19
-11.63
-10.44
-8.68
-6.60
-4.50
-2.53
-0.75
0.88
2.38
3.69
4.74
5.48
6.01
6.45
6.98
7.68
8.50
9.30
9.93
10.28
10.38
10.35
10.34
10.44
10.63
10.79
10.78
10.46
9.79
8.85
7.75
6.59
5.48
4.43
3.37
2.25
0.99
-0.37
-1.75
-3.00
-4.06
-4.99
-5.95
-7.11
-8.46
-9.75
-10.63
-10.83
-10.41
-9.74
-9.31
-9.36
-9.74
-9.93
-9.40
-7.94
-5.80
-3.53
-1.73
-0.70
-0.33
-0.28
-0.11
0.40
1.21
2.04
2.59
2.71
2.46
2.14
2.06
2.38
3.02
3.70
4.09
4.04
3.68
3.36
3.45
4.12
5.26
6.56
7.67
8.36
8.51
8.14
7.30
6.10
4.68
3.18
1.79
0.63
-0.30
-1.04
-1.75
-2.50
-3.32
-4.13
-4.86
-5.47
-6.03
-6.65
-7.47
-8.53
-9.84
-11.30
-12.78
-14.05
-14.91
-15.16
-14.63
-13.29
-11.26
-8.83
-6.38
-4.24
-2.57
-1.27
-0.05
1.41
3.25
5.36
7.43
9.13
10.26
10.84
11.06
11.08
10.99
10.83
10.63
10.50
10.58
10.96
11.61
12.29
12.65
12.46
11.70
10.52
9.26
8.21
7.48
7.06
6.78
6.45
5.94
5.22
4.34
3.42
2.63
2.10
1.94
2.11
2.48
2.74
2.56
1.69
0.07
-2.09
-4.48
-6.81
-8.94
-10.93
-12.96
-15.11
-17.29
-19.13
-20.26
-20.33
-19.27
-17.28
-14.68
-11.84
-9.04
-6.47
-4.20
-2.26
-0.66
0.56
1.37
1.79
1.93
2.03
2.29
2.88
3.75
4.71
5.54
6.10
6.43
6.60
6.68
6.56
6.08
5.17
4.03
3.17
3.15
4.26
6.30
8.64
10.47
11.27
11.04
10.29
9.63
9.44
9.68
9.97
9.85
9.11
7.88
6.44
5.00
3.61
2.12
0.35
-1.71
-3.85
-5.75
-7.14
-7.91
-8.15
-8.11
-8.13
-8.46
-9.31
-10.67
-12.29
-13.76
-14.62
-14.56
-13.49
-11.58
-9.18
-6.69
-4.42
-2.66
-1.50
-0.95
-0.85
-0.90
-0.73
-0.07
1.16
2.73
4.26
5.36
5.83
5.77
5.48
5.36
5.64
6.46
7.74
9.37
11.15
12.86
14.24
15.02
15.03
14.21
12.73
10.88
8.99
7.31
5.96
4.95
4.24
3.76
3.42
3.09
2.56
1.68
0.34
-1.39
-3.32
-5.25
-7.01
-8.56
-10.07
-11.72
-13.74
-16.14
-18.72
-21.04
-22.54
-22.75
-21.50
-18.97
-15.62
-12.01
-8.60
-5.60
-3.02
-0.76
1.24
2.99
4.43
5.54
6.41
7.17
7.95
8.76
9.46
9.84
9.74
9.16
8.28
7.39
6.68
6.24
5.92
5.53
4.97
4.29
3.67
3.23
2.97
2.74
2.34
1.68
0.87
0.15
-0.22
-0.15
0.21
0.57
0.65
0.31
-0.42
-1.36
-2.31
-3.12
-3.73
-4.12
-4.39
-4.63
-5.02
-5.76
-6.98
-8.63
-10.47
-12.07
-13.00
-12.99
-12.10
-10.67
-9.07
-7.60
-6.33
-5.13
-3.86
-2.47
-1.07
0.13
1.00
1.55
1.94
2.43
3.19
4.27
5.56
6.84
7.95
8.76
9.26
9.57
9.76
9.90
9.95
9.88
9.61
9.17
8.64
8.15
7.77
7.50
7.24
6.82
6.10
5.02
3.63
2.09
0.59
-0.70
-1.72
-2.48
-3.06
-3.50
-3.80
-3.89
-3.74
-3.41
-3.03
-2.78
-2.76
-2.99
-3.41
-3.98
-4.81
-6.10
-7.93
-10.11
-12.22
-13.69
-14.11
-13.47
-12.07
-10.42
-8.85
-7.44
-6.07
-4.56
-2.88
-1.14
0.49
1.97
3.37
4.84
6.44
8.09
9.54
10.50
10.82
10.50
9.73
8.80
7.99
7.47
7.25
7.24
7.29
7.25
7.02
6.60
6.08
5.56
5.15
4.91
4.84
4.88
4.97
5.08
5.16
5.22
5.30
5.42
5.59
5.76
5.83
5.66
5.17
4.35
3.27
2.03
0.67
-0.79
-2.36
-3.99
-5.64
-7.19
-8.66
-10.18
-11.96
-14.15
-16.65
-19.10
-20.93
-21.63
-20.96
-19.08
-16.49
-13.74
-11.26
-9.19
-7.42
-5.68
-3.73
-1.52
0.80
2.99
4.84
6.23
7.19
7.82
8.16
8.23
8.03
7.62
7.11
6.76
6.71
7.04
7.66
8.40
9.05
9.50
9.70
9.71
9.60
9.43
9.19
8.84
8.33
7.62
6.75
5.81
4.86
3.92
2.96
1.92
0.77
-0.46
-1.70
-2.89
-4.09
-5.47
-7.25
-9.56
-12.31
-15.17
-17.69
-19.40
-20.02
-19.53
-18.17
-16.31
-14.35
-12.51
-10.84
-9.24
-7.55
-5.67
-3.58
-1.35
0.87
2.91
4.61
5.88
6.71
7.18
7.41
7.50
7.49
7.36
7.10
6.79
6.57
6.64
7.06
7.63
7.88
7.27
5.36
2.24
-1.51
-4.95
-7.23
-7.94
-7.48
-6.85
-7.16
-9.15
-12.77
-17.16
-21.04
-23.53
-24.34
-24.01
-23.50
-23.68
-25.06
-27.81
-32.02
-37.68
-44.28
-50.36
-53.55
-51.30
-42.18
-26.98
-8.72
8.47
21.12
27.92
29.84
29.29
28.44
28.31
28.57
28.43
27.46
26.01
24.89
24.77
25.67
27.05
28.18
28.45
27.71
26.24
24.54
23.06
22.04
21.54
21.41
21.40
21.28
20.86
20.08
19.03
17.92
17.00
16.47
16.33
16.40
16.40
16.04
15.21
14.05
12.86
11.88
11.12
10.32
9.12
7.26
4.80
2.07
-0.46
-2.48
-3.94
-5.09
-6.28
-7.72
-9.37
-10.98
-12.23
-13.02
-13.49
-13.99
-14.87
-16.32
-18.18
-20.03
-21.32
-21.54
-20.47
-18.23
-15.24
-12.05
-9.21
-7.08
-5.78
-5.14
-4.76
-4.22
-3.17
-1.54
0.55
2.80
4.96
6.90
8.64
10.25
11.70
12.86
13.56
13.67
13.24
12.50
11.72
11.11
10.71
10.39
9.95
9.24
8.27
7.20
6.27
5.66
5.43
5.51
5.71
5.85
5.81
5.58
5.14
4.53
3.74
2.75
1.57
0.26
-1.08
-2.39
-3.57
-4.55
-5.31
-5.83
-6.11
-6.25
-6.38
-6.64
-7.09
-7.67
-8.23
-8.59
-8.59
-8.19
-7.48
-6.57
-5.58
-4.60
-3.67
-2.76
-1.81
-0.77
0.38
1.63
2.90
4.09
5.08
5.76
6.12
6.26
6.38
6.72
7.43
8.46
9.65
10.74
11.56
12.13
12.60
13.14
13.82
14.50
14.91
14.81
14.12
12.87
11.13
8.89
6.02
2.40
-1.89
-6.52
-10.88
-14.35
-16.53
-17.42
-17.39
-16.99
-16.74
-16.91
-17.53
-18.46
-19.54
-20.69
-21.87
-22.98
-23.84
-24.15
-23.63
-22.12
-19.69
-16.65
-13.47
-10.64
-8.55
-7.29
-6.73
-6.46
-6.01
-4.98
-3.19
-0.73
2.16
5.14
7.94
10.36
12.30
13.72
14.59
15.02
15.13
15.11
15.13
15.25
15.36
15.17
14.31
12.59
10.04
7.02
4.14
2.06
1.19
1.57
2.75
3.94
4.32
3.40
1.30
-1.30
-3.47
-4.49
-4.17
-2.96
-1.63
-0.87
-0.91
-1.50
-2.17
-2.58
-2.70
-2.83
-3.22
-3.97
-4.87
-5.69
-6.41
-7.29
-8.80
-11.26
-14.55
-18.00
-20.71
-21.89
-21.19
-18.84
-15.51
-11.95
-8.71
-6.04
-3.91
-2.20
-0.81
0.28
1.10
1.72
2.29
3.00
3.97
5.29
6.84
8.41
9.78
10.79
11.38
11.66
11.86
12.18
12.72
13.45
14.16
14.63
14.67
14.25
13.41
12.32
11.17
10.13
9.34
8.82
8.51
8.24
7.85
7.28
6.62
6.00
5.51
4.94
3.89
1.93
-0.98
-4.39
-7.46
-9.39
-9.84
-9.21
-8.37
-8.21
-9.17
-10.94
-12.64
-13.12
-11.49
-7.56
-1.95
4.12
9.29
12.51
13.52
12.84
11.40
10.13
9.72
10.51
12.45
15.06
17.39
18.16
16.09
10.62
2.28
-7.23
-15.78
-21.68
-24.35
-24.37
-22.75
-20.32
-17.35
-13.74
-9.58
-5.39
-2.05
-0.24
-0.12
-1.15
-2.52
-3.55
-3.87
-3.61
-3.19
-3.00
-3.32
-4.26
-5.68
-7.33
-8.88
-10.05
-10.74
-11.04
-11.28
-11.75
-12.65
-13.97
-15.43
-16.69
-17.47
-17.62
-17.15
-16.12
-14.61
-12.71
-10.52
-8.26
-6.12
-4.25
-2.72
-1.49
-0.50
0.30
0.95
1.52
2.11
2.84
3.73
4.72
5.63
6.33
6.79
7.16
7.67
8.48
9.64
11.01
12.40
13.59
14.37
14.67
14.42
13.61
12.32
10.67
8.86
7.08
5.49
4.18
3.15
2.31
1.49
0.56
-0.58
-1.88
-3.21
-4.43
-5.48
-6.41
-7.39
-8.62
-10.21
-12.10
-13.99
-15.48
-16.12
-15.65
-14.14
-11.87
-9.32
-6.89
-4.82
-3.09
-1.57
-0.17
1.11
2.19
2.97
3.50
3.93
4.41
4.99
5.56
6.00
6.26
6.45
6.78
7.46
8.48
9.72
10.98
12.10
13.04
13.79
14.29
14.39
13.95
12.92
11.45
9.85
8.44
7.36
6.56
5.83
4.96
3.83
2.46
0.94
-0.60
-2.05
-3.33
-4.38
-5.17
-5.74
-6.21
-6.76
-7.60
-8.93
-10.83
-13.17
-15.64
-17.75
-19.04
-19.21
-18.32
-16.73
-15.00
-13.55
-12.54
-11.84
-11.11
-10.08
-8.67
-7.01
-5.27
-3.59
-1.96
-0.31
1.41
3.15
4.76
6.15
7.28
8.31
9.53
11.16
13.24
15.56
17.68
19.12
19.58
19.10
18.04
16.87
15.98
15.48
15.16
14.68
13.80
12.52
11.12
9.99
9.39
9.31
9.44
9.36
8.77
7.60
6.08
4.51
3.13
1.94
0.82
-0.50
-2.17
-4.18
-6.34
-8.37
-10.02
-11.16
-11.88
-12.41
-13.08
-14.13
-15.62
-17.40
-19.12
-20.39
-20.85
-20.33
-18.82
-16.43
-13.39
-9.97
-6.59
-3.78
-1.99
-1.45
-1.92
-2.69
-2.86
-1.67
1.10
5.05
9.29
12.90
15.25
16.19
15.96
15.03
13.76
12.42
11.14
10.01
9.18
8.81
8.97
9.57
10.33
10.82
10.63
9.60
7.88
5.97
4.41
3.56
3.40
3.60
3.70
3.41
2.69
1.69
0.64
-0.41
-1.50
-2.74
-4.10
-5.43
-6.45
-6.94
-6.93
-6.64
-6.50
-6.91
-8.13
-10.09
-12.48
-14.75
-16.37
-17.00
-16.57
-15.26
-13.38
-11.25
-9.16
-7.31
-5.83
-4.72
-3.90
-3.19
-2.38
-1.32
0.04
1.59
3.20
4.73
6.12
7.39
8.54
9.54
10.33
10.79
10.84
10.47
9.74
8.83
7.92
7.14
6.50
5.90
5.24
4.44
3.58
2.81
2.30
2.12
2.19
2.32
2.29
1.95
1.25
0.22
-1.05
-2.46
-3.93
-5.35
-6.64
-7.79
-8.80
-9.74
-10.60
-11.34
-11.85
-11.98
-11.64
-10.83
-9.62
-8.19
-6.68
-5.19
-3.75
-2.33
-0.86
0.79
2.66
4.79
7.06
9.30
11.26
12.73
13.61
13.94
13.92
13.79
13.81
14.05
14.40
14.64
14.56
14.07
13.25
12.22
11.09
9.81
8.22
6.16
3.64
0.88
-1.71
-3.79
-5.20
-6.09
-6.80
-7.63
-8.74
-10.03
-11.20
-11.97
-12.22
-12.12
-11.98
-12.17
-12.85
-13.94
-15.11
-16.00
-16.35
-16.20
-15.78
-15.39
-15.16
-14.98
-14.54
-13.48
-11.66
-9.23
-6.56
-4.08
-2.04
-0.49
0.74
1.82
2.93
4.10
5.30
6.48
7.62
8.72
9.82
10.91
11.96
12.87
13.52
13.83
13.84
13.69
13.54
13.46
13.40
13.19
12.71
11.97
11.22
10.77
10.84
11.43
12.36
13.27
13.85
13.92
13.46
12.57
11.36
9.93
8.31
6.50
4.58
2.67
0.96
-0.40
-1.37
-2.03
-2.68
-3.65
-5.19
-7.33
-9.87
-12.45
-14.75
-16.65
-18.27
-19.87
-21.62
-23.41
-24.87
-25.48
-24.87
-23.00
-20.20
-17.01
-13.89
-11.03
-8.40
-5.78
-3.05
-0.25
2.41
4.69
6.44
7.68
8.57
9.34
10.14
10.98
11.70
12.07
11.90
11.19
10.17
9.14
8.40
7.99
7.75
7.39
6.66
5.58
4.36
3.31
2.68
2.53
2.69
2.96
3.15
3.17
2.98
2.56
1.88
0.88
-0.42
-1.90
-3.39
-4.66
-5.56
-6.08
-6.35
-6.61
-7.14
-8.12
-9.55
-11.28
-12.96
-14.30
-15.07
-15.19
-14.66
-13.48
-11.67
-9.27
-6.44
-3.43
-0.58
1.86
3.75
5.14
6.15
6.88
7.37
7.59
7.52
7.13
6.50
5.68
4.82
4.09
3.69
3.78
4.42
5.48
6.67
7.66
8.26
8.50
8.61
8.84
9.27
9.80
10.13
10.06
9.49
8.57
7.59
6.79
6.30
6.04
5.85
5.47
4.70
3.42
1.65
-0.50
-2.81
-5.08
-7.22
-9.32
-11.59
-14.25
-17.29
-20.48
-23.36
-25.44
-26.37
-26.04
-24.62
-22.46
-20.07
-17.89
-16.23
-15.19
-14.58
-14.02
-13.13
-11.63
-9.54
-7.16
-4.96
-3.46
-3.10
-4.12
-6.32
-8.91
-10.51
-9.60
-5.12
2.91
13.20
23.65
32.14
37.38
39.31
38.87
37.38
35.84
34.57
33.36
31.89
30.03
28.03
26.25
24.95
24.06
23.26
22.13
20.39
18.23
16.04
14.40
13.68
13.76
14.16
14.30
13.65
12.02
9.47
6.23
2.41
-2.00
-7.06
-12.79
-18.93
-24.92
-29.92
-33.15
-34.24
-33.43
-31.65
-29.90
-28.78
-28.03
-26.70
-23.85
-19.32
-14.01
-9.37
-6.56
-5.69
-5.75
-5.47
-4.09
-1.86
0.24
1.27
1.18
0.69
0.93
2.52
5.20
7.89
9.39
9.20
7.76
6.20
5.62
6.50
8.35
10.09
10.63
9.49
7.13
4.58
2.91
2.54
3.18
3.91
3.80
2.43
0.08
-2.49
-4.39
-5.10
-4.68
-3.70
-3.00
-3.33
-4.88
-7.33
-9.92
-11.87
-12.69
-12.53
-12.02
-12.08
-13.39
-16.14
-19.88
-23.77
-27.02
-29.18
-30.06
-29.50
-27.19
-22.89
-16.83
-10.22
-4.95
-2.64
-3.44
-5.64
-6.38
-3.43
3.30
11.34
17.07
17.64
12.65
4.31
-3.85
-8.77
-9.17
-5.56
0.42
6.95
12.62
16.30
17.26
15.11
10.07
3.20
-3.94
-9.87
-13.68
-15.12
-14.39
-11.66
-6.91
-0.27
7.74
15.95
22.87
27.26
28.80
28.18
26.75
25.53
24.80
23.84
21.56
17.28
11.28
4.76
-0.72
-3.90
-4.44
-3.07
-1.00
0.40
0.38
-0.98
-2.92
-4.37
-4.47
-3.02
-0.37
2.73
5.49
7.49
8.68
9.24
9.33
9.04
8.37
7.41
6.42
5.80
5.91
6.81
8.25
9.71
10.60
10.54
9.53
7.94
6.29
5.14
4.77
5.12
5.83
6.38
6.33
5.43
3.73
1.56
-0.60
-2.36
-3.48
-4.05
-4.37
-4.77
-5.49
-6.55
-7.81
-9.11
-10.29
-11.37
-12.38
-13.36
-14.27
-15.02
-15.52
-15.75
-15.80
-15.85
-16.13
-16.79
-17.85
-19.16
-20.40
-21.21
-21.27
-20.44
-18.80
-16.59
-14.08
-11.52
-9.04
-6.67
-4.40
-2.23
-0.19
1.60
3.04
4.09
4.79
5.33
5.95
6.82
8.03
9.47
10.88
11.96
12.57
12.67
12.44
12.08
11.75
11.52
11.37
11.25
11.11
10.86
10.37
9.50
8.11
6.26
4.19
2.26
0.80
-0.03
-0.36
-0.48
-0.77
-1.44
-2.54
-3.93
-5.38
-6.69
-7.71
-8.43
-8.89
-9.16
-9.35
-9.51
-9.72
-10.11
-10.83
-12.00
-13.58
-15.24
-16.50
-16.87
-16.09
-14.30
-11.96
-9.65
-7.76
-6.37
-5.23
-4.03
-2.54
-0.77
1.09
2.90
4.59
6.22
7.88
9.45
10.69
11.31
11.19
10.53
9.75
9.32
9.52
10.26
11.15
11.72
11.68
10.99
9.88
8.65
7.50
6.54
5.77
5.17
4.78
4.66
4.81
5.15
5.51
5.69
5.52
4.95
4.03
2.89
1.67
0.45
-0.78
-2.02
-3.33
-4.63
-5.88
-7.02
-8.11
-9.31
-10.78
-12.54
-14.40
-15.89
-16.50
-15.94
-14.21
-11.67
-8.87
-6.31
-4.27
-2.83
-1.87
-1.21
-0.68
-0.10
0.72
1.91
3.53
5.45
7.42
9.07
10.10
10.39
10.03
9.36
8.75
8.54
8.91
9.74
10.71
11.43
11.55
10.96
9.78
8.36
7.07
6.12
5.51
5.03
4.43
3.52
2.28
0.81
-0.72
-2.14
-3.42
-4.57
-5.73
-7.03
-8.55
-10.30
-12.10
-13.73
-14.89
-15.45
-15.45
-15.09
-14.60
-14.12
-13.63
-12.95
-11.89
-10.32
-8.26
-5.86
-3.34
-0.93
1.21
2.98
4.42
5.62
6.61
7.43
8.08
8.54
8.87
9.20
9.60
10.07
10.51
10.74
10.78
10.73
10.78
11.10
11.64
12.20
12.51
12.40
11.95
11.34
10.78
10.30
9.72
8.84
7.55
5.94
4.28
2.88
1.91
1.25
0.60
-0.42
-2.03
-4.13
-6.34
-8.24
-9.55
-10.27
-10.65
-11.00
-11.54
-12.33
-13.30
-14.33
-15.33
-16.22
-16.87
-17.17
-16.96
-16.21
-14.93
-13.24
-11.26
-9.14
-7.06
-5.20
-3.71
-2.57
-1.63
-0.62
0.71
2.45
4.40
6.24
7.67
8.58
9.11
9.54
10.11
10.94
11.95
12.97
13.85
14.51
15.01
15.39
15.65
15.71
15.45
14.84
13.96
13.04
12.33
11.97
11.87
11.74
11.24
10.11
8.39
6.34
4.38
2.88
1.93
1.42
1.07
0.61
-0.03
-0.75
-1.37
-1.73
-1.89
-2.01
-2.34
-2.96
-3.78
-4.57
-5.14
-5.55
-6.10
-7.22
-9.15
-11.82
-14.82
-17.57
-19.61
-20.71
-20.86
-20.23
-19.03
-17.46
-15.73
-14.04
-12.54
-11.25
-10.05
-8.72
-7.06
-4.96
-2.48
0.21
2.91
5.35
7.37
8.86
9.94
10.85
11.95
13.45
15.29
17.17
18.65
19.33
19.09
18.03
16.43
14.57
12.67
10.86
9.19
7.69
6.40
5.37
4.58
4.05
3.72
3.49
3.26
2.89
2.31
1.48
0.42
-0.88
-2.45
-4.27
-6.23
-8.08
-9.50
-10.34
-10.69
-10.89
-11.34
-12.30
-13.64
-15.01
-15.98
-16.28
-15.83
-14.79
-13.33
-11.59
-9.64
-7.61
-5.68
-4.06
-2.89
-2.09
-1.43
-0.60
0.62
2.21
4.03
5.78
7.30
8.51
9.52
10.47
11.49
12.54
13.51
14.23
14.57
14.49
14.03
13.20
12.01
10.42
8.49
6.32
4.12
2.07
0.24
-1.48
-3.25
-5.22
-7.28
-9.20
-10.68
-11.54
-11.83
-11.82
-11.88
-12.37
-13.40
-14.92
-16.65
-18.14
-18.90
-18.54
-16.84
-13.94
-10.22
-6.30
-2.69
0.28
2.62
4.56
6.38
8.21
9.99
11.53
12.67
13.32
13.50
13.29
12.81
12.12
11.32
10.58
10.12
10.11
10.55
11.22
11.77
11.86
11.34
10.34
9.13
7.92
6.76
5.53
4.02
2.20
0.21
-1.68
-3.20
-4.24
-4.89
-5.37
-5.86
-6.45
-7.11
-7.75
-8.29
-8.76
-9.26
-10.00
-11.10
-12.60
-14.36
-16.12
-17.60
-18.54
-18.81
-18.37
-17.22
-15.39
-13.00
-10.22
-7.40
-4.88
-2.94
-1.64
-0.71
0.27
1.73
3.86
6.54
9.42
12.06
14.08
15.32
15.82
15.72
15.22
14.48
13.71
13.06
12.68
12.62
12.87
13.27
13.60
13.67
13.35
12.67
11.79
10.96
10.32
9.87
9.48
8.92
8.12
7.12
6.11
5.22
4.54
4.00
3.42
2.62
1.50
0.09
-1.52
-3.22
-4.92
-6.53
-8.02
-9.41
-10.73
-12.03
-13.40
-14.90
-16.59
-18.46
-20.44
-22.39
-24.01
-24.96
-24.94
-23.78
-21.57
-18.70
-15.66
-12.92
-10.73
-9.05
-7.65
-6.23
-4.59
-2.70
-0.63
1.47
3.56
5.64
7.80
10.04
12.24
14.22
15.81
16.95
17.73
18.29
18.74
19.02
18.95
18.37
17.20
15.55
13.72
12.00
10.65
9.78
9.35
9.22
9.13
8.81
8.04
6.79
5.24
3.81
2.85
2.57
2.81
3.18
3.26
2.83
1.96
0.91
-0.06
-0.89
-1.72
-2.82
-4.38
-6.45
-8.91
-11.56
-14.19
-16.63
-18.72
-20.28
-21.10
-21.01
-19.95
-17.98
-15.32
-12.31
-9.25
-6.38
-3.79
-1.50
0.53
2.28
3.63
4.42
4.56
4.19
3.66
3.45
3.94
5.20
6.99
8.79
10.09
10.57
10.24
9.37
8.39
7.66
7.30
7.21
7.17
6.97
6.58
6.13
5.85
5.87
6.15
6.36
6.12
5.15
3.44
1.28
-0.91
-2.79
-4.24
-5.39
-6.49
-7.75
-9.23
-10.78
-12.20
-13.35
-14.17
-14.69
-14.96
-14.91
-14.42
-13.33
-11.66
-9.58
-7.45
-5.55
-4.03
-2.82
-1.65
-0.28
1.47
3.60
5.97
8.30
10.27
11.62
12.17
11.91
11.03
9.85
8.69
7.77
7.23
7.13
7.54
8.47
9.83
11.29
12.42
12.77
12.17
10.81
9.21
7.98
7.45
7.61
8.01
8.12
7.54
6.22
4.46
2.70
1.31
0.42
-0.12
-0.59
-1.27
-2.22
-3.31
-4.29
-5.07
-5.70
-6.47
-7.65
-9.42
-11.68
-14.11
-16.31
-17.89
-18.60
-18.33
-17.16
-15.29
-12.96
-10.45
-7.95
-5.59
-3.38
-1.36
0.48
2.11
3.50
4.70
5.77
6.74
7.57
8.11
8.19
7.74
6.83
5.70
4.63
3.82
3.34
3.13
3.11
3.24
3.54
4.08
4.86
5.80
6.72
7.41
7.76
7.77
7.53
7.13
6.62
5.97
5.15
4.18
3.18
2.33
1.74
1.35
0.96
0.32
-0.71
-2.05
-3.41
-4.45
-4.92
-4.85
-4.48
-4.20
-4.36
-5.10
-6.40
-8.02
-9.71
-11.23
-12.55
-13.70
-14.68
-15.44
-15.77
-15.49
-14.50
-12.94
-11.04
-9.08
-7.18
-5.36
-3.51
-1.60
0.27
1.99
3.45
4.68
5.77
6.84
7.91
8.85
9.52
9.82
9.78
9.52
9.15
8.74
8.31
7.87
7.47
7.22
7.19
7.36
7.56
7.58
7.19
6.40
5.34
4.29
3.44
2.81
2.21
1.35
0.03
-1.74
-3.75
-5.67
-7.24
-8.39
-9.18
-9.82
-10.39
-10.96
-11.49
-11.95
-12.36
-12.75
-13.21
-13.70
-14.07
-14.12
-13.65
-12.62
-11.15
-9.48
-7.84
-6.35
-4.94
-3.41
-1.56
0.67
3.13
5.49
7.41
8.70
9.38
9.73
10.02
10.45
10.98
11.43
11.62
11.51
11.25
11.06
11.10
11.36
11.62
11.59
11.07
10.01
8.53
6.87
5.27
3.87
2.71
1.75
0.98
0.36
-0.18
-0.76
-1.54
-2.70
-4.31
-6.28
-8.33
-10.12
-11.39
-12.06
-12.29
-12.35
-12.53
-12.97
-13.67
-14.50
-15.25
-15.73
-15.74
-15.13
-13.77
-11.71
-9.17
-6.51
-4.10
-2.13
-0.60
0.66
1.77
2.78
3.62
4.25
4.79
5.44
6.44
7.87
9.53
11.01
11.87
11.84
10.99
9.67
8.38
7.61
7.57
8.22
9.27
10.29
10.96
11.11
10.80
10.17
9.40
8.63
7.97
7.45
7.08
6.80
6.45
5.86
4.83
3.32
1.42
-0.68
-2.77
-4.65
-6.22
-7.42
-8.20
-8.60
-8.79
-9.03
-9.64
-10.83
-12.66
-14.85
-16.97
-18.55
-19.23
-18.94
-17.80
-16.07
-14.02
-11.90
-9.92
-8.36
-7.40
-7.13
-7.44
-7.91
-8.03
-7.32
-5.59
-2.95
0.12
3.06
5.44
7.12
8.28
9.24
10.34
11.74
13.37
15.04
16.60
17.91
18.96
19.73
20.13
20.03
19.33
18.10
16.56
14.99
13.57
12.28
10.86
8.95
6.36
3.14
-0.32
-3.47
-5.86
-7.27
-7.89
-8.12
-8.37
-8.90
-9.63
-10.33
-10.70
-10.61
-10.15
-9.60
-9.29
-9.44
-10.12
-11.21
-12.47
-13.62
-14.41
-14.67
-14.35
-13.52
-12.32
-10.91
-9.44
-8.03
-6.65
-5.20
-3.47
-1.35
1.17
3.87
6.40
8.35
9.45
9.63
9.06
8.01
6.86
5.96
5.56
5.73
6.35
7.06
7.44
7.25
6.57
5.76
5.30
5.41
5.97
6.56
6.72
6.30
5.44
4.43
3.42
2.35
1.04
-0.63
-2.42
-3.92
-4.67
-4.45
-3.40
-1.95
-0.59
0.23
0.29
-0.48
-1.98
-4.04
-6.36
-8.62
-10.51
-11.82
-12.44
-12.41
-11.75
-10.55
-8.94
-7.08
-5.21
-3.51
-2.09
-0.90
0.19
1.29
2.44
3.53
4.44
5.03
5.27
5.21
4.94
4.60
4.31
4.15
4.20
4.49
5.05
5.79
6.57
7.22
7.55
7.47
7.04
6.43
5.83
5.40
5.15
5.01
4.89
4.71
4.49
4.25
3.94
3.45
2.69
1.63
0.37
-0.92
-2.08
-3.05
-3.91
-4.77
-5.76
-6.95
-8.34
-9.87
-11.41
-12.81
-13.95
-14.72
-15.12
-15.18
-14.93
-14.34
-13.34
-11.91
-10.09
-8.06
-6.07
-4.38
-3.13
-2.27
-1.61
-0.86
0.21
1.64
3.31
4.95
6.30
7.20
7.71
8.01
8.33
8.84
9.59
10.50
11.50
12.47
13.35
14.08
14.58
14.78
14.66
14.17
13.41
12.42
11.34
10.30
9.42
8.71
8.13
7.55
6.81
5.80
4.48
2.92
1.24
-0.44
-1.99
-3.35
-4.49
-5.45
-6.33
-7.30
-8.51
-10.04
-11.79
-13.61
-15.28
-16.67
-17.75
-18.57
-19.20
-19.61
-19.71
-19.40
-18.56
-17.15
-15.22
-12.91
-10.38
-7.80
-5.30
-2.99
-0.91
0.89
2.42
3.65
4.58
5.22
5.64
5.91
6.12
6.29
6.44
6.59
6.76
6.98
7.29
7.67
8.06
8.44
8.76
8.98
9.07
8.99
8.69
8.17
7.45
6.64
5.86
5.22
4.73
4.40
4.17
3.95
3.71
3.39
2.91
2.21
1.24
0.01
-1.44
-2.98
-4.52
-5.98
-7.32
-8.60
-9.87
-11.20
-12.52
-13.69
-14.46
-14.59
-13.96
-12.61
-10.79
-8.84
-7.07
-5.64
-4.52
-3.50
-2.34
-0.95
0.60
2.17
3.54
4.58
5.26
5.65
5.89
6.13
6.52
7.17
8.12
9.32
10.64
11.91
12.90
13.51
13.67
13.37
12.66
11.64
10.36
8.89
7.27
5.53
3.67
1.68
-0.38
-2.44
-4.42
-6.25
-7.91
-9.43
-10.85
-12.21
-13.55
-14.89
-16.17
-17.27
-17.95
-17.99
-17.23
-15.63
-13.43
-10.98
-8.68
-6.85
-5.59
-4.72
-3.94
-2.92
-1.49
0.35
2.37
4.27
5.87
7.04
7.83
8.33
8.62
8.79
8.92
9.10
9.42
9.85
10.30
10.59
10.54
10.09
9.30
8.36
7.52
6.91
6.52
6.22
5.73
4.82
3.39
1.52
-0.57
-2.61
-4.46
-6.05
-7.45
-8.76
-10.03
-11.26
-12.36
-13.26
-13.81
-13.91
-13.46
-12.41
-10.79
-8.75
-6.55
-4.44
-2.61
-1.11
0.10
1.15
2.13
3.11
4.08
5.06
6.10
7.26
8.59
10.02
11.33
12.27
12.61
12.34
11.65
10.86
10.22
9.85
9.69
9.56
9.32
8.85
8.20
7.37
6.33
5.01
3.36
1.46
-0.51
-2.35
-3.90
-5.16
-6.30
-7.47
-8.73
-9.95
-10.87
-11.26
-11.08
-10.61
-10.24
-10.39
-11.22
-12.52
-13.86
-14.74
-14.77
-13.86
-12.16
-9.93
-7.47
-5.00
-2.67
-0.62
1.07
2.38
3.42
4.40
5.59
7.14
9.05
11.12
12.96
14.26
14.88
14.90
14.60
14.23
13.95
13.72
13.34
12.62
11.48
10.03
8.53
7.26
6.37
5.82
5.47
5.13
4.71
4.26
3.81
3.38
2.87
2.15
1.10
-0.24
-1.72
-3.14
-4.41
-5.54
-6.70
-7.96
-9.31
-10.58
-11.53
-11.96
-11.93
-11.72
-11.78
-12.54
-14.26
-16.82
-19.79
-22.51
-24.39
-25.07
-24.59
-23.28
-21.69
-20.33
-19.58
-19.57
-19.97
-19.95
-18.42
-14.28
-7.00
2.92
13.92
23.87
30.81
33.73
32.92
29.68
25.62
21.97
19.22
17.20
15.53
14.01
12.80
12.11
12.09
12.45
12.67
12.11
10.48
7.95
5.10
2.58
0.90
0.25
0.49
1.23
2.06
2.76
3.16
3.31
3.34
3.38
3.42
3.34
2.91
1.91
0.28
-1.76
-3.92
-5.86
-7.34
-8.30
-8.70
-8.55
-7.82
-6.61
-5.17
-3.88
-3.02
-2.63
-2.44
-1.96
-0.78
1.21
3.80
6.58
9.09
11.01
12.23
12.79
12.86
12.63
12.36
12.29
12.53
13.01
13.44
13.48
12.81
11.39
9.45
7.39
5.63
4.42
3.81
3.70
3.88
4.11
4.10
3.64
2.60
1.05
-0.77
-2.56
-4.06
-5.24
-6.18
-7.07
-8.01
-9.01
-9.93
-10.75
-11.56
-12.49
-13.65
-14.90
-15.99
-16.56
-16.51
-15.93
-15.09
-14.28
-13.60
-12.91
-12.06
-11.04
-10.13
-9.78
-10.09
-10.72
-10.87
-9.66
-6.72
-2.46
2.04
5.56
7.44
7.86
7.75
8.13
9.55
11.69
13.70
14.75
14.48
13.29
11.95
11.20
11.28
11.94
12.57
12.62
11.83
10.41
8.79
7.45
6.60
6.14
5.76
4.99
3.55
1.42
-1.13
-3.63
-5.68
-7.20
-8.44
-9.79
-11.48
-13.38
-14.90
-15.37
-14.32
-11.71
-7.90
-3.46
0.95
4.69
7.18
7.89
6.49
3.08
-1.55
-6.08
-8.88
-8.77
-5.54
-0.18
5.38
9.01
9.29
6.18
1.00
-4.27
-7.99
-9.59
-9.63
-9.19
-8.94
-8.70
-7.51
-4.58
0.26
6.11
11.61
15.49
17.37
17.66
17.20
16.68
16.28
15.77
14.78
13.22
11.31
9.45
7.94
6.76
5.48
3.42
0.06
-4.69
-10.31
-15.79
-20.03
-22.20
-22.12
-20.24
-17.42
-14.55
-12.18
-10.46
-9.15
-7.88
-6.38
-4.56
-2.52
-0.43
1.60
3.56
5.49
7.39
9.09
10.37
11.03
11.03
10.63
10.18
10.01
10.17
10.38
10.21
9.31
7.72
5.80
4.16
3.23
3.15
3.60
4.08
4.05
3.28
1.84
0.05
-1.72
-3.20
-4.30
-5.09
-5.67
-6.13
-6.59
-7.14
-7.91
-8.97
-10.30
-11.69
-12.81
-13.25
-12.76
-11.35
-9.34
-7.23
-5.48
-4.34
-3.70
-3.26
-2.61
-1.49
0.17
2.23
4.45
6.63
8.66
10.50
12.01
13.01
13.21
12.39
10.57
8.05
5.43
3.31
2.13
2.00
2.69
3.76
4.75
5.31
5.27
4.59
3.36
1.76
0.02
-1.62
-3.00
-4.09
-4.94
-5.71
-6.51
-7.43
-8.47
-9.65
-10.88
-12.08
-13.06
-13.59
-13.47
-12.60
-11.07
-9.14
-7.14
-5.44
-4.23
-3.57
-3.28
-3.03
-2.45
-1.28
0.57
2.88
5.30
7.47
9.16
10.32
10.98
11.20
10.99
10.42
9.61
8.76
8.10
7.68
7.38
7.00
6.38
5.55
4.76
4.25
4.11
4.15
4.01
3.38
2.17
0.41
-1.75
-4.27
-7.10
-10.15
-13.05
-15.30
-16.40
-16.16
-14.81
-12.85
-10.80
-8.92
-7.09
-4.98
-2.39
0.63
3.79
6.69
9.07
10.91
12.31
13.41
14.24
14.66
14.52
13.76
12.52
11.10
9.82
8.88
8.27
7.80
7.24
6.45
5.44
4.42
3.67
3.35
3.48
3.88
4.32
4.49
4.19
3.25
1.62
-0.62
-3.22
-5.82
-8.03
-9.55
-10.26
-10.28
-9.91
-9.57
-9.65
-10.40
-11.83
-13.68
-15.48
-16.74
-17.08
-16.37
-14.69
-12.27
-9.41
-6.40
-3.44
-0.72
1.71
3.88
5.85
7.72
9.49
11.09
12.38
13.28
13.76
13.84
13.58
12.96
12.01
10.76
9.34
7.96
6.77
5.89
5.32
5.02
4.81
4.55
4.07
3.36
2.57
1.93
1.69
1.92
2.45
2.93
2.95
2.33
1.13
-0.36
-1.76
-2.84
-3.53
-3.98
-4.36
-4.77
-5.28
-5.87
-6.53
-7.32
-8.27
-9.43
-10.77
-12.14
-13.30
-13.95
-13.87
-13.04
-11.59
-9.79
-7.94
-6.22
-4.66
-3.28
-2.09
-1.15
-0.54
-0.24
-0.00
0.49
1.56
3.27
5.36
7.39
8.91
9.71
9.93
9.98
10.34
11.33
12.93
14.87
16.69
17.94
18.36
17.98
17.06
16.01
15.15
14.55
13.99
13.10
11.57
9.36
6.79
4.31
2.28
0.71
-0.73
-2.49
-4.84
-7.71
-10.72
-13.42
-15.54
-17.09
-18.23
-19.07
-19.57
-19.59
-19.05
-18.11
-17.10
-16.40
-16.25
-16.63
-17.33
-18.02
-18.42
-18.29
-17.46
-15.90
-13.66
-10.96
-8.16
-5.64
-3.72
-2.48
-1.73
-1.14
-0.33
0.90
2.57
4.51
6.42
8.05
9.19
9.80
9.96
9.84
9.62
9.45
9.39
9.42
9.49
9.49
9.37
9.13
8.85
8.60
8.42
8.25
7.97
7.44
6.61
5.52
4.36
3.34
2.54
1.82
0.93
-0.38
-2.16
-4.22
-6.11
-7.44
-7.99
-7.91
-7.61
-7.61
-8.27
-9.60
-11.32
-12.91
-13.93
-14.15
-13.63
-12.53
-11.09
-9.44
-7.64
-5.75
-3.89
-2.23
-0.90
0.08
0.82
1.51
2.28
3.13
4.01
4.85
5.67
6.52
7.42
8.26
8.84
8.96
8.54
7.72
6.78
6.03
5.68
5.76
6.15
6.55
6.70
6.40
5.64
4.57
3.44
2.52
1.96
1.69
1.53
1.21
0.52
-0.61
-2.05
-3.62
-5.11
-6.36
-7.30
-7.91
-8.27
-8.47
-8.70
-9.15
-10.03
-11.44
-13.37
-15.63
-17.89
-19.72
-20.76
-20.78
-19.70
-17.65
-14.86
-11.64
-8.30
-5.10
-2.20
0.29
2.34
3.88
4.91
5.48
5.73
5.88
6.18
6.82
7.85
9.13
10.47
11.60
12.38
12.81
13.00
13.12
13.32
13.72
14.25
14.79
15.11
14.94
14.12
12.64
10.62
8.33
6.05
4.03
2.39
1.13
0.16
-0.70
-1.66
-2.86
-4.35
-6.08
-7.88
-9.60
-11.12
-12.38
-13.31
-13.91
-14.23
-14.38
-14.54
-14.86
-15.42
-16.08
-16.63
-16.78
-16.38
-15.39
-13.88
-11.99
-9.78
-7.39
-4.94
-2.66
-0.82
0.49
1.30
1.81
2.31
3.00
3.92
4.95
5.88
6.54
6.89
7.02
7.06
7.13
7.26
7.38
7.46
7.45
7.40
7.40
7.50
7.72
8.01
8.31
8.58
8.82
9.03
9.23
9.32
9.09
8.35
6.96
4.98
2.68
0.51
-1.16
-2.17
-2.69
-3.06
-3.58
-4.39
-5.33
-6.11
-6.45
-6.27
-5.69
-4.96
-4.41
-4.22
-4.51
-5.35
-6.71
-8.47
-10.45
-12.30
-13.67
-14.19
-13.69
-12.19
-10.01
-7.61
-5.45
-3.73
-2.42
-1.24
0.10
1.72
3.47
5.07
6.26
6.97
7.31
7.49
7.60
7.61
7.42
7.01
6.52
6.24
6.38
6.97
7.75
8.33
8.33
7.70
6.67
5.64
4.93
4.61
4.49
4.30
3.86
3.24
2.66
2.29
2.14
1.99
1.48
0.36
-1.39
-3.48
-5.54
-7.20
-8.33
-9.02
-9.51
-10.08
-10.88
-11.92
-13.07
-14.09
-14.71
-14.77
-14.19
-13.04
-11.54
-9.93
-8.41
-7.01
-5.61
-4.01
-2.07
0.19
2.59
4.83
6.72
8.23
9.47
10.65
11.81
12.90
13.76
14.24
14.33
14.18
14.03
14.07
14.32
14.64
14.76
14.35
13.22
11.39
9.04
6.52
4.20
2.36
1.10
0.38
0.08
0.02
0.04
-0.00
-0.22
-0.67
-1.33
-2.02
-2.57
-2.91
-3.11
-3.37
-3.97
-5.11
-6.80
-8.87
-11.08
-13.07
-14.47
-14.94
-14.28
-12.55
-10.11
-7.53
-5.39
-3.96
-3.17
-2.62
-1.88
-0.69
0.90
2.67
4.34
5.79
7.00
8.04
8.93
9.67
10.18
10.43
10.49
10.49
10.50
10.57
10.63
10.51
10.00
8.96
7.42
5.59
3.79
2.36
1.52
1.34
1.69
2.35
3.09
3.64
3.78
3.36
2.37
0.98
-0.53
-1.81
-2.65
-2.97
-2.88
-2.58
-2.28
-2.12
-2.25
-2.87
-4.09
-5.91
-8.11
-10.26
-11.89
-12.77
-12.97
-12.90
-13.10
-13.89
-15.17
-16.43
-16.93
-16.13
-13.95
-10.83
-7.46
-4.49
-2.24
-0.63
0.61
1.76
2.90
3.96
4.82
5.53
6.30
7.37
8.89
10.76
12.62
14.03
14.70
14.55
13.78
12.75
11.81
11.16
10.79
10.56
10.27
9.80
9.13
8.34
7.48
6.58
5.59
4.45
3.13
1.65
0.14
-1.26
-2.31
-2.86
-2.87
-2.48
-2.02
-1.84
-2.12
-2.79
-3.57
-4.18
-4.55
-4.88
-5.49
-6.63
-8.17
-9.72
-10.84
-11.28
-11.13
-10.71
-10.28
-9.83
-9.14
-7.91
-6.01
-3.57
-0.94
1.53
3.63
5.27
6.48
7.28
7.71
7.81
7.73
7.67
7.73
7.87
7.90
7.64
7.00
6.11
5.17
4.41
3.92
3.64
3.43
3.17
2.79
2.33
1.91
1.65
1.60
1.74
1.96
2.11
2.06
1.80
1.39
0.96
0.54
0.09
-0.58
-1.65
-3.21
-5.11
-7.08
-8.71
-9.70
-9.90
-9.41
-8.52
-7.60
-6.89
-6.47
-6.26
-6.08
-5.80
-5.38
-4.88
-4.39
-3.98
-3.68
-3.34
-2.84
-2.00
-0.70
0.98
2.77
4.28
5.14
5.22
4.69
3.96
3.47
3.51
4.07
4.95
5.89
6.74
7.45
8.02
8.46
8.77
8.92
9.00
9.09
9.31
9.63
9.88
9.82
9.19
7.83
5.83
3.41
0.99
-1.07
-2.54
-3.43
-3.95
-4.42
-5.11
-6.19
-7.65
-9.40
-11.36
-13.44
-15.49
-17.25
-18.39
-18.62
-17.86
-16.27
-14.24
-12.16
-10.29
-8.68
-7.18
-5.66
-4.07
-2.50
-1.11
-0.05
0.71
1.28
1.89
2.73
3.83
5.12
6.41
7.53
8.39
9.07
9.75
10.53
11.42
12.24
12.75
12.78
12.36
11.70
11.10
10.73
10.61
10.55
10.33
9.82
9.01
8.06
7.11
6.31
5.65
5.07
4.47
3.76
2.88
1.77
0.43
-1.14
-2.80
-4.33
-5.39
-5.73
-5.28
-4.25
-3.12
-2.42
-2.58
-3.75
-5.68
-7.95
-9.99
-11.33
-11.69
-11.07
-9.66
-7.84
-6.06
-4.68
-3.86
-3.47
-3.21
-2.70
-1.71
-0.24
1.45
2.97
3.98
4.27
3.89
3.04
2.01
1.12
0.54
0.39
0.63
1.15
1.77
2.31
2.65
2.73
2.60
2.39
2.22
2.11
2.07
1.98
1.76
1.40
0.98
0.64
0.49
0.55
0.67
0.62
0.08
-1.22
-3.33
-6.10
-9.06
-11.72
-13.60
-14.60
-14.93
-15.06
-15.42
-16.16
-17.04
-17.51
-16.99
-15.16
-12.11
-8.28
-4.26
-0.54
2.61
5.10
6.99
8.34
9.21
9.67
9.93
10.22
10.78
11.70
12.81
13.76
14.25
14.10
13.42
12.50
11.69
11.16
10.93
10.81
10.55
9.92
8.77
7.07
4.94
2.71
0.83
-0.24
-0.17
1.03
2.93
4.87
6.18
6.44
5.57
3.86
1.80
-0.16
-1.67
-2.54
-2.82
-2.68
-2.46
-2.49
-3.12
-4.52
-6.65
-9.37
-12.39
-15.45
-18.26
-20.55
-22.03
-22.41
-21.60
-19.76
-17.30
-14.73
-12.50
-10.79
-9.52
-8.41
-7.20
-5.74
-3.99
-2.04
-0.08
1.73
3.27
4.49
5.45
6.32
7.29
8.45
9.76
11.07
12.18
13.01
13.60
14.09
14.57
15.07
15.51
15.71
15.53
14.90
13.85
12.55
11.19
9.98
9.05
8.39
7.90
7.41
6.81
6.07
5.25
4.43
3.53
2.44
0.98
-0.89
-3.07
-5.30
-7.36
-9.12
-10.62
-12.08
-13.66
-15.40
-17.17
-18.72
-19.70
-19.92
-19.32
-18.02
-16.25
-14.23
-12.11
-9.94
-7.70
-5.38
-3.03
-0.80
1.18
2.76
3.93
4.76
5.34
5.76
6.10
6.43
6.84
7.39
8.12
9.11
10.24
11.38
12.34
12.89
12.92
12.44
11.64
10.74
9.91
9.20
8.47
7.52
6.24
4.58
2.66
0.65
-1.31
-3.15
-4.86
-6.41
-7.73
-8.71
-9.29
-9.49
-9.48
-9.52
-9.84
-10.53
-11.51
-12.49
-13.18
-13.34
-12.93
-12.04
-10.82
-9.44
-7.95
-6.39
-4.85
-3.42
-2.24
-1.39
-0.83
-0.36
0.28
1.29
2.74
4.51
6.39
8.14
9.67
10.95
12.04
12.97
13.77
14.42
14.90
15.22
15.40
15.39
15.09
14.39
13.24
11.73
10.10
8.57
7.37
6.53
6.01
5.64
5.26
4.71
3.88
2.68
1.15
-0.59
-2.37
-3.93
-5.11
-5.80
-6.04
-6.00
-5.98
-6.29
-7.20
-8.85
-11.16
-13.82
-16.43
-18.51
-19.71
-19.89
-19.10
-17.54
-15.52
-13.35
-11.27
-9.41
-7.78
-6.35
-5.01
-3.67
-2.22
-0.71
0.80
2.17
3.24
3.93
4.30
4.48
4.69
5.08
5.75
6.65
7.70
8.78
9.81
10.61
11.05
11.01
10.50
9.69
8.92
8.46
8.52
9.03
9.79
10.49
10.89
10.89
10.51
9.86
9.05
8.12
7.10
5.93
4.59
3.16
1.71
0.31
-0.99
-2.28
-3.65
-5.22
-7.00
-8.90
-10.75
-12.40
-13.80
-14.97
-16.01
-16.93
-17.70
-18.18
-18.16
-17.53
-16.27
-14.51
-12.40
-10.18
-8.04
-6.11
-4.49
-3.15
-1.98
-0.74
0.79
2.82
5.27
7.84
10.04
11.41
11.75
11.20
10.28
9.54
9.43
10.02
11.10
12.23
13.05
13.35
13.13
12.50
11.60
10.57
9.51
8.57
7.88
7.47
7.29
7.17
6.87
6.15
4.90
3.11
0.89
-1.56
-3.94
-6.00
-7.52
-8.48
-9.07
-9.61
-10.43
-11.70
-13.30
-14.90
-16.00
-16.19
-15.24
-13.26
-10.56
-7.68
-5.15
-3.37
-2.45
-2.17
-2.12
-1.83
-1.05
0.26
1.92
3.70
5.46
7.07
8.48
9.64
10.47
11.02
11.39
11.79
12.35
13.06
13.76
14.19
14.05
13.20
11.62
9.46
6.99
4.56
2.45
0.83
-0.31
-1.20
-2.10
-3.28
-4.87
-6.83
-9.00
-11.16
-13.05
-14.42
-15.11
-15.15
-14.75
-14.29
-14.15
-14.52
-15.32
-16.17
-16.60
-16.25
-15.01
-12.99
-10.52
-7.86
-5.26
-2.84
-0.62
1.44
3.34
5.17
6.93
8.60
10.15
11.48
12.54
13.26
13.59
13.56
13.18
12.58
11.89
11.27
10.88
10.79
10.96
11.31
11.66
11.84
11.75
11.29
10.45
9.29
7.88
6.36
4.88
3.59
2.63
2.10
2.03
2.31
2.68
2.75
2.17
0.82
-1.12
-3.23
-5.01
-6.15
-6.72
-7.10
-7.79
-9.15
-11.21
-13.64
-15.96
-17.74
-18.74
-18.88
-18.20
-16.88
-15.20
-13.58
-12.54
-12.40
-13.10
-14.09
-14.51
-13.55
-10.85
-6.66
-1.72
3.12
7.22
10.32
12.48
13.89
14.69
14.98
14.77
14.20
13.45
12.77
12.29
12.05
11.91
11.68
11.27
10.67
10.03
9.56
9.45
9.71
10.12
10.34
9.97
8.85
7.09
5.09
3.38
2.29
1.83
1.67
1.34
0.55
-0.68
-2.12
-3.43
-4.45
-5.25
-6.04
-6.99
-8.22
-9.72
-11.44
-13.37
-15.47
-17.56
-19.35
-20.48
-20.65
-19.75
-17.91
-15.40
-12.51
-9.51
-6.61
-3.95
-1.67
0.14
1.46
2.35
2.98
3.52
4.13
4.89
5.84
6.99
8.32
9.81
11.36
12.80
13.91
14.51
14.52
13.99
13.09
12.09
11.14
10.34
9.62
8.84
7.90
6.78
5.55
4.34
3.24
2.28
1.44
0.69
-0.02
-0.72
-1.42
-2.09
-2.79
-3.60
-4.66
-6.15
-8.17
-10.71
-13.57
-16.43
-18.94
-20.73
-21.50
-21.10
-19.54
-17.01
-13.94
-10.84
-8.27
-6.42
-5.14
-3.90
-2.02
0.91
4.80
9.00
12.53
14.62
15.05
14.29
13.22
12.66
12.99
14.01
15.20
16.06
16.38
16.25
15.83
15.11
13.86
11.93
9.37
6.53
3.97
2.13
1.16
0.94
1.21
1.80
2.52
3.23
3.63
3.35
2.16
0.22
-1.98
-3.72
-4.53
-4.41
-3.87
-3.64
-4.28
-5.97
-8.53
-11.63
-14.99
-18.37
-21.52
-23.97
-25.15
-24.63
-22.46
-19.21
-15.76
-12.94
-11.15
-10.29
-9.98
-9.78
-9.42
-8.87
-8.10
-7.00
-5.39
-3.02
0.21
4.18
8.47
12.53
15.89
18.29
19.76
20.59
21.11
21.65
22.31
23.01
23.56
23.72
23.38
22.51
21.25
19.77
18.27
16.79
15.34
13.81
12.12
10.21
8.14
5.97
3.82
1.79
-0.01
-1.47
-2.53
-3.26
-3.83
-4.49
-5.44
-6.75
-8.37
-10.14
-11.92
-13.65
-15.32
-16.96
-18.60
-20.28
-22.02
-23.76
-25.35
-26.45
-26.69
-25.74
-23.46
-20.04
-15.93
-11.67
-7.78
-4.58
-2.14
-0.39
0.90
1.94
2.91
3.96
5.16
6.49
7.89
9.17
10.12
10.53
10.24
9.31
8.03
6.88
6.39
6.92
8.50
10.80
13.22
15.18
16.23
16.29
15.48
14.13
12.52
10.91
9.40
8.08
6.94
5.96
5.00
3.91
2.54
0.87
-1.05
-3.05
-4.97
-6.70
-8.21
-9.51
-10.64
-11.65
-12.62
-13.70
-15.04
-16.70
-18.60
-20.47
-22.04
-23.07
-23.45
-23.26
-22.61
-21.61
-20.25
-18.43
-15.99
-12.83
-8.93
-4.44
0.38
5.10
9.29
12.54
14.63
15.58
15.63
15.19
14.66
14.34
14.34
14.63
15.13
15.71
16.31
16.87
17.27
17.34
16.89
15.83
14.20
12.26
10.31
8.64
7.35
6.35
5.39
4.23
2.68
0.74
-1.45
-3.63
-5.57
-7.10
-8.17
-8.88
-9.36
-9.82
-10.49
-11.57
-13.20
-15.40
-17.97
-20.50
-22.42
-23.19
-22.45
-20.24
-16.96
-13.24
-9.70
-6.71
-4.37
-2.50
-0.86
0.79
2.57
4.51
6.58
8.69
10.69
12.33
13.32
13.51
12.94
11.97
11.15
10.97
11.65
13.00
14.51
15.51
15.51
14.34
12.24
9.69
7.16
4.96
3.20
1.81
0.72
-0.11
-0.59
-0.67
-0.32
0.36
1.10
1.61
1.58
0.83
-0.59
-2.45
-4.33
-5.95
-7.17
-8.09
-8.94
-9.95
-11.24
-12.81
-14.69
-16.95
-19.57
-22.37
-24.81
-26.16
-25.84
-23.68
-20.09
-15.85
-11.74
-8.20
-5.25
-2.60
0.02
2.72
5.41
7.92
10.08
11.88
13.36
14.51
15.29
15.57
15.22
14.23
12.77
11.19
9.88
9.21
9.33
10.05
10.99
11.64
11.66
10.93
9.65
8.16
6.83
5.92
5.46
5.37
5.40
5.34
5.06
4.55
3.89
3.11
2.13
0.86
-0.77
-2.67
-4.54
-6.16
-7.39
-8.33
-9.25
-10.37
-11.79
-13.42
-15.13
-16.76
-18.18
-19.27
-19.78
-19.49
-18.25
-16.15
-13.48
-10.68
-8.11
-5.97
-4.22
-2.68
-1.12
0.62
2.65
4.91
7.30
9.57
11.47
12.79
13.43
13.44
12.95
12.15
11.22
10.38
9.79
9.56
9.67
9.95
10.10
9.91
9.28
8.38
7.47
6.77
6.39
6.24
6.14
5.93
5.52
4.88
3.97
2.83
1.54
0.25
-0.95
-2.16
-3.69
-5.97
-9.31
-13.55
-18.08
-21.95
-24.30
-24.67
-23.18
-20.37
-16.96
-13.57
-10.58
-8.16
-6.41
-5.28
-4.69
-4.37
-3.88
-2.76
-0.64
2.49
6.28
10.11
13.26
15.25
15.87
15.37
14.22
13.00
12.21
12.11
12.66
13.56
14.40
14.80
14.58
13.83
12.86
11.99
11.43
11.15
11.01
10.82
10.44
9.79
8.80
7.45
5.76
3.83
1.83
-0.08
-1.85
-3.62
-5.58
-7.85
-10.34
-12.71
-14.64
-15.92
-16.68
-17.30
-18.18
-19.57
-21.44
-23.57
-25.57
-27.10
-27.91
-27.88
-27.08
-25.66
-23.86
-21.91
-19.97
-18.15
-16.53
-15.22
-14.17
-13.22
-12.05
-10.29
-7.75
-4.55
-1.15
1.86
4.07
5.44
6.26
7.01
8.06
9.48
11.10
12.69
14.12
15.44
16.82
18.29
19.82
21.23
22.32
23.02
23.33
23.33
23.05
22.42
21.31
19.62
17.44
14.97
12.56
10.52
8.98
7.85
6.93
6.02
5.04
4.08
3.32
2.89
2.68
2.44
1.77
0.38
-1.83
-4.67
-7.76
-10.58
-12.66
-13.64
-13.37
-11.92
-9.54
-6.61
-3.53
-0.62
1.91
3.97
5.57
6.77
7.67
8.33
8.83
9.16
9.31
9.26
9.08
8.85
8.66
8.56
8.49
8.36
8.09
7.68
7.18
6.68
6.19
5.65
4.98
4.14
3.17
2.17
1.24
0.45
-0.23
-0.88
-1.66
-2.67
-3.96
-5.51
-7.16
-8.68
-9.81
-10.41
-10.45
-10.10
-9.64
-9.37
-9.51
-10.08
-10.92
-11.66
-11.85
-11.05
-9.12
-6.19
-2.76
0.52
3.05
4.53
4.96
4.68
4.20
4.02
4.45
5.49
6.87
8.22
9.22
9.74
9.88
9.88
9.91
10.06
10.27
10.53
10.90
11.49
12.39
13.50
14.52
15.10
14.96
14.07
12.56
10.64
8.45
6.02
3.37
0.51
-2.47
-5.47
-8.41
-11.31
-14.26
-17.39
-20.81
-24.57
-28.62
-32.78
-36.76
-40.13
-42.50
-43.57
-43.31
-41.83
-39.38
-36.07
-31.92
-26.88
-20.98
-14.43
-7.68
-1.33
4.10
8.27
11.12
12.85
13.78
14.22
14.38
14.31
13.96
13.25
12.16
10.78
9.26
7.79
6.50
5.49
4.85
4.65
4.95
5.72
6.77
7.86
8.78
9.42
9.79
9.98
10.04
9.88
9.38
8.49
7.28
5.95
4.65
3.44
2.24
0.87
-0.79
-2.72
-4.69
-6.51
-8.05
-9.45
-10.96
-12.86
-15.29
-18.05
-20.76
-22.91
-24.11
-24.16
-23.04
-20.86
-17.75
-13.88
-9.53
-5.10
-1.06
2.19
4.50
6.01
7.07
8.12
9.43
11.11
13.00
14.83
16.29
17.12
17.15
16.33
14.73
12.58
10.26
8.22
6.90
6.64
7.48
9.16
11.10
12.64
13.24
12.73
11.39
9.81
8.49
7.60
6.96
6.10
4.59
2.28
-0.65
-3.82
-6.89
-9.65
-12.13
-14.47
-16.76
-18.92
-20.62
-21.50
-21.22
-19.73
-17.31
-14.42
-11.56
-9.05
-6.98
-5.28
-3.83
-2.63
-1.72
-1.09
-0.56
0.18
1.35
2.98
4.84
6.56
7.89
8.78
9.37
9.82
10.15
10.18
9.71
8.69
7.30
5.90
4.82
4.12
3.63
3.04
2.19
1.18
0.25
-0.42
-0.86
-1.35
-2.18
-3.49
-5.09
-6.63
-7.94
-9.18
-10.80
-13.24
-16.56
-20.26
-23.49
-25.47
-25.82
-24.67
-22.50
-19.79
-16.84
-13.71
-10.47
-7.25
-4.33
-1.96
-0.24
0.96
1.97
3.12
4.58
6.31
8.13
9.71
10.75
11.11
10.74
9.83
8.68
7.66
7.08
7.10
7.66
8.47
9.15
9.26
8.53
6.91
4.66
2.22
0.06
-1.52
-2.50
-3.10
-3.59
-4.17
-4.91
-5.76
-6.66
-7.50
-8.20
-8.62
-8.50
-7.66
-6.02
-3.74
-1.14
1.34
3.43
5.02
6.25
7.31
8.42
9.66
11.00
12.35
13.54
14.45
15.02
15.24
15.17
14.90
14.54
14.14
13.75
13.40
13.12
12.91
12.75
12.58
12.36
12.07
11.75
11.47
11.29
11.19
11.04
10.68
9.96
8.86
7.45
5.90
4.37
2.91
1.53
0.16
-1.22
-2.59
-3.96
-5.32
-6.77
-8.39
-10.22
-12.22
-14.24
-16.11
-17.68
-18.88
-19.69
-20.04
-19.85
-19.03
-17.53
-15.37
-12.68
-9.61
-6.32
-2.91
0.52
3.85
6.95
9.63
11.77
13.30
14.23
14.63
14.58
14.15
13.39
12.38
11.24
10.16
9.38
9.02
9.12
9.54
10.01
10.27
10.09
9.34
7.97
6.05
3.80
1.55
-0.31
-1.45
-1.78
-1.45
-0.78
-0.10
0.43
0.78
0.98
1.03
0.79
0.11
-1.04
-2.51
-3.99
-5.16
-5.92
-6.36
-6.84
-7.76
-9.35
-11.65
-14.37
-16.99
-18.92
-19.62
-18.76
-16.41
-13.00
-9.18
-5.66
-2.96
-1.25
-0.35
0.14
0.63
1.41
2.56
4.01
5.62
7.23
8.68
9.77
10.30
10.18
9.40
8.17
6.83
5.68
4.93
4.58
4.46
4.35
4.18
4.03
4.07
4.44
5.11
5.86
6.35
6.29
5.58
4.39
3.05
1.95
1.29
1.04
0.93
0.69
0.19
-0.45
-0.96
-1.10
-0.88
-0.60
-0.75
-1.74
-3.71
-6.39
-9.21
-11.56
-12.93
-13.09
-12.06
-10.06
-7.44
-4.57
-1.84
0.46
2.24
3.53
4.47
5.18
5.69
5.96
5.95
5.69
5.30
4.99
4.96
5.26
5.76
6.21
6.28
5.75
4.66
3.34
2.30
2.07
2.89
4.59
6.58
8.03
8.30
7.19
5.04
2.65
0.85
0.11
0.30
0.72
0.46
-1.14
-4.11
-7.80
-11.26
-13.59
-14.49
-14.34
-13.92
-14.00
-14.87
-16.18
-17.02
-16.27
-12.88
-6.21
3.69
15.58
26.97
34.59
35.30
27.39
11.56
-8.77
-28.43
-41.95
-45.67
-38.84
-23.83
-5.08
12.66
25.79
32.80
34.09
31.26
26.14
20.10
13.95
8.22
3.43
0.27
-0.69
0.52
3.16
5.92
7.52
7.20
5.08
2.09
-0.55
-1.94
-1.95
-1.27
-1.12
-2.60
-6.15
-11.38
-17.08
-21.91
-24.79
-25.40
-24.07
-21.58
-18.78
-16.21
-14.16
-12.60
-11.41
-10.45
-9.59
-8.68
-7.59
-6.26
-4.75
-3.30
-2.16
-1.54
-1.39
-1.41
-1.18
-0.28
1.38
3.65
6.10
8.29
9.87
10.76
11.01
10.79
10.25
9.47
8.51
7.49
6.62
6.16
6.30
7.09
8.38
9.82
11.03
11.71
11.81
11.42
10.80
10.11
9.40
8.54
7.40
5.88
4.05
2.07
0.13
-1.58
-3.00
-4.17
-5.21
-6.32
-7.68
-9.41
-11.44
-13.56
-15.37
-16.53
-16.78
-16.03
-14.39
-11.98
-8.98
-5.64
-2.28
0.68
2.93
4.31
5.01
5.47
6.11
7.18
8.57
9.90
10.73
10.84
10.30
9.43
8.54
7.80
7.21
6.60
5.83
4.87
3.82
2.80
1.92
1.22
0.67
0.30
0.17
0.41
1.04
1.97
2.89
3.34
2.99
1.71
-0.23
-2.32
-3.97
-4.81
-4.82
-4.29
-3.62
-3.13
-2.95
-2.96
-3.05
-3.12
-3.24
-3.54
-4.21
-5.41
-7.28
-9.93
-13.27
-17.02
-20.62
-23.37
-24.74
-24.58
-23.15
-20.99
-18.61
-16.28
-13.98
-11.61
-9.16
-6.84
-5.01
-3.91
-3.50
-3.43
-3.18
-2.33
-0.78
1.23
3.20
4.67
5.41
5.49
5.25
5.04
4.99
4.98
4.85
4.62
4.58
5.18
6.70
8.98
11.45
13.36
14.20
13.96
12.95
11.54
9.87
7.78
5.02
1.58
-2.15
-5.60
-8.22
-9.94
-11.14
-12.44
-14.28
-16.70
-19.25
-21.17
-21.73
-20.47
-17.39
-12.90
-7.71
-2.58
1.85
5.23
7.52
8.97
9.97
10.87
11.91
13.11
14.33
15.42
16.29
16.91
17.26
17.20
16.60
15.38
13.71
11.96
10.61
9.90
9.81
10.02
10.12
9.89
9.42
8.97
8.80
8.96
9.19
9.15
8.59
7.48
6.00
4.43
2.91
1.47
0.01
-1.59
-3.27
-4.92
-6.33
-7.43
-8.29
-9.16
-10.32
-11.90
-13.73
-15.42
-16.40
-16.29
-14.99
-12.82
-10.36
-8.11
-6.28
-4.71
-3.02
-0.87
1.78
4.63
7.18
9.00
9.93
10.12
9.87
9.54
9.24
8.95
8.59
8.09
7.54
7.15
7.08
7.37
7.82
8.16
8.16
7.77
7.15
6.54
6.06
5.70
5.29
4.72
3.98
3.19
2.48
1.88
1.31
0.64
-0.16
-1.08
-2.10
-3.31
-4.85
-6.82
-9.12
-11.44
-13.41
-14.78
-15.63
-16.24
-16.93
-17.83
-18.78
-19.44
-19.46
-18.71
-17.24
-15.27
-13.06
-10.77
-8.50
-6.32
-4.28
-2.49
-1.04
0.08
0.99
1.87
2.92
4.28
5.91
7.59
9.03
9.91
10.09
9.64
8.92
8.31
8.11
8.36
8.89
9.42
9.69
9.64
9.32
8.90
8.52
8.24
8.00
7.70
7.20
6.46
5.52
4.56
3.78
3.30
3.07
2.86
2.36
1.35
-0.22
-2.13
-4.04
-5.68
-6.90
-7.74
-8.35
-8.85
-9.28
-9.64
-9.91
-10.14
-10.44
-10.90
-11.53
-12.24
-12.83
-13.07
-12.79
-11.91
-10.42
-8.48
-6.33
-4.30
-2.70
-1.69
-1.13
-0.76
-0.25
0.52
1.43
2.16
2.43
2.21
1.71
1.27
1.10
1.20
1.40
1.53
1.66
2.00
2.84
4.30
6.15
7.92
9.04
9.17
8.28
6.76
5.16
4.00
3.58
3.79
4.25
4.51
4.18
3.15
1.52
-0.47
-2.52
-4.40
-5.93
-7.00
-7.58
-7.78
-7.83
-8.04
-8.65
-9.72
-11.04
-12.23
-12.93
-12.89
-12.06
-10.57
-8.59
-6.24
-3.65
-0.96
1.63
3.89
5.69
6.98
7.92
8.76
9.63
10.50
11.14
11.24
10.60
9.28
7.65
6.21
5.40
5.39
6.04
6.95
7.68
7.93
7.66
7.05
6.29
5.48
4.61
3.66
2.68
1.85
1.30
1.03
0.77
0.17
-1.05
-2.84
-4.87
-6.61
-7.72
-8.14
-8.16
-8.16
-8.46
-9.16
-10.14
-11.23
-12.30
-13.21
-13.85
-14.06
-13.67
-12.59
-10.81
-8.48
-5.81
-3.06
-0.44
1.87
3.75
5.17
6.25
7.18
8.24
9.60
11.26
13.03
14.57
15.57
15.85
15.48
14.69
13.78
12.94
12.27
11.76
11.34
11.00
10.74
10.57
10.47
10.37
10.17
9.76
9.09
8.12
6.89
5.41
3.77
2.01
0.22
-1.42
-2.77
-3.65
-4.01
-3.92
-3.50
-2.95
-2.40
-1.89
-1.40
-0.94
-0.58
-0.44
-0.65
-1.32
-2.48
-4.10
-6.15
-8.58
-11.29
-14.05
-16.55
-18.46
-19.52
-19.64
-18.91
-17.45
-15.37
-12.84
-10.07
-7.38
-5.25
-4.03
-3.79
-4.23
-4.73
-4.72
-3.88
-2.26
-0.25
1.71
3.35
4.58
5.55
6.40
7.24
8.07
8.84
9.49
9.98
10.30
10.37
10.11
9.42
8.24
6.66
4.90
3.31
2.25
1.99
2.53
3.64
4.93
5.98
6.52
6.52
6.10
5.47
4.80
4.15
3.44
2.55
1.44
0.10
-1.35
-2.75
-3.97
-4.94
-5.79
-6.73
-8.03
-9.86
-12.24
-14.98
-17.67
-19.81
-20.90
-20.61
-18.87
-15.96
-12.43
-8.90
-5.85
-3.48
-1.65
-0.05
1.64
3.56
5.64
7.71
9.62
11.30
12.67
13.56
13.77
13.15
11.73
9.81
7.94
6.63
6.17
6.55
7.47
8.55
9.45
9.92
9.86
9.22
8.06
6.57
5.12
4.09
3.77
4.15
4.81
5.22
4.88
3.63
1.70
-0.43
-2.29
-3.64
-4.47
-4.98
-5.40
-5.87
-6.42
-6.96
-7.39
-7.64
-7.69
-7.58
-7.35
-7.10
-6.83
-6.52
-6.07
-5.36
-4.28
-2.83
-1.14
0.63
2.29
3.62
4.41
4.50
3.85
2.63
1.25
0.25
0.06
0.77
2.09
3.44
4.32
4.58
4.51
4.62
5.28
6.50
7.93
9.12
9.76
9.84
9.57
9.13
8.59
7.85
6.75
5.23
3.39
1.41
-0.48
-2.12
-3.38
-4.21
-4.66
-4.82
-4.92
-5.22
-5.88
-6.95
-8.31
-9.76
-11.09
-12.23
-13.16
-13.94
-14.58
-15.04
-15.24
-15.07
-14.47
-13.43
-12.05
-10.45
-8.82
-7.27
-5.84
-4.47
-2.99
-1.28
0.67
2.70
4.59
6.15
7.35
8.35
9.37
10.59
12.01
13.43
14.56
15.15
15.15
14.69
14.05
13.47
13.03
12.67
12.24
11.67
10.97
10.14
9.19
8.03
6.61
5.01
3.42
2.13
1.25
0.65
0.00
-1.01
-2.47
-4.14
-5.60
-6.56
-6.99
-7.11
-7.25
-7.54
-7.86
-7.95
-7.68
-7.18
-6.81
-7.05
-8.23
-10.27
-12.78
-15.09
-16.57
-16.82
-15.81
-13.85
-11.38
-8.85
-6.52
-4.48
-2.71
-1.21
0.03
1.03
1.89
2.82
4.08
5.79
7.88
10.09
12.06
13.49
14.31
14.61
14.51
14.19
13.80
13.45
13.18
12.88
12.27
10.98
8.72
5.51
1.72
-2.02
-5.02
-6.77
-7.05
-6.00
-4.01
-1.59
0.73
2.47
3.31
3.12
1.99
0.20
-1.86
-3.85
-5.48
-6.59
-7.12
-7.10
-6.66
-6.08
-5.72
-6.01
-7.33
-9.75
-13.00
-16.43
-19.25
-20.77
-20.73
-19.36
-17.21
-14.90
-12.83
-11.03
-9.32
-7.44
-5.24
-2.69
0.15
3.12
6.02
8.54
10.34
11.21
11.20
10.66
10.09
9.90
10.18
10.72
11.19
11.36
11.21
10.86
10.42
9.86
9.11
8.13
7.00
5.93
5.11
4.58
4.22
3.84
3.33
2.69
2.05
1.49
1.02
0.54
-0.07
-0.90
-1.96
-3.20
-4.67
-6.49
-8.80
-11.63
-14.78
-17.75
-19.88
-20.64
-19.84
-17.72
-14.90
-12.10
-9.79
-8.07
-6.67
-5.17
-3.29
-0.97
1.60
4.13
6.42
8.33
9.82
10.89
11.48
11.57
11.19
10.49
9.71
9.10
8.81
8.91
9.24
9.56
9.61
9.19
8.23
6.92
5.52
4.38
3.73
3.61
3.86
4.17
4.24
3.86
3.02
1.77
0.23
-1.48
-3.27
-4.98
-6.45
-7.46
-7.93
-7.87
-7.46
-7.00
-6.80
-7.09
-7.95
-9.32
-11.03
-12.85
-14.58
-16.01
-17.02
-17.49
-17.30
-16.37
-14.71
-12.48
-9.98
-7.53
-5.37
-3.51
-1.75
0.17
2.40
4.85
7.24
9.27
10.75
11.71
12.38
12.98
13.54
13.98
14.08
13.73
12.99
12.12
11.42
11.10
11.16
11.42
11.70
11.83
11.73
11.35
10.63
9.47
7.84
5.88
3.80
1.92
0.42
-0.64
-1.33
-1.71
-1.75
-1.51
-1.09
-0.76
-0.78
-1.28
-2.13
-3.03
-3.67
-4.01
-4.33
-5.04
-6.56
-8.94
-11.87
-14.77
-17.05
-18.33
-18.59
-18.07
-17.07
-15.78
-14.26
-12.41
-10.19
-7.71
-5.20
-2.98
-1.21
0.14
1.31
2.54
3.97
5.48
6.78
7.56
7.67
7.17
6.29
5.33
4.56
4.18
4.30
4.88
5.77
6.71
7.48
7.99
8.35
8.82
9.59
10.68
11.79
12.47
12.33
11.19
9.24
6.89
4.65
2.88
1.73
1.12
0.85
0.62
0.23
-0.48
-1.55
-2.92
-4.52
-6.19
-7.82
-9.29
-10.55
-11.56
-12.31
-12.86
-13.26
-13.57
-13.75
-13.71
-13.26
-12.28
-10.74
-8.78
-6.68
-4.72
-3.08
-1.72
-0.41
1.06
2.82
4.85
6.99
9.04
10.80
12.09
12.75
12.68
11.90
10.66
9.31
8.22
7.57
7.27
7.10
6.78
6.18
5.32
4.34
3.33
2.34
1.42
0.61
0.02
-0.23
-0.18
-0.01
0.01
-0.36
-1.22
-2.53
-4.13
-5.88
-7.64
-9.36
-10.99
-12.50
-13.83
-14.85
-15.44
-15.48
-14.92
-13.81
-12.31
-10.58
-8.81
-7.00
-5.07
-2.88
-0.42
2.19
4.70
6.79
8.26
9.02
9.12
8.71
8.01
7.21
6.54
6.13
6.06
6.30
6.78
7.39
8.09
8.85
9.62
10.29
10.61
10.39
9.58
8.35
7.07
6.09
5.51
5.11
4.48
3.27
1.47
-0.55
-2.29
-3.43
-3.96
-4.24
-4.72
-5.68
-7.04
-8.56
-9.98
-11.22
-12.31
-13.32
-14.13
-14.54
-14.39
-13.72
-12.80
-11.97
-11.39
-10.96
-10.36
-9.36
-7.94
-6.36
-4.87
-3.59
-2.34
-0.76
1.38
4.09
7.08
9.93
12.29
13.99
15.06
15.61
15.79
15.69
15.37
14.88
14.25
13.57
12.95
12.49
12.22
12.08
11.91
11.55
10.97
10.20
9.39
8.63
7.99
7.38
6.66
5.54
3.89
1.67
-0.90
-3.43
-5.48
-6.83
-7.53
-7.92
-8.46
-9.54
-11.24
-13.40
-15.63
-17.59
-19.02
-19.83
-19.99
-19.47
-18.24
-16.28
-13.62
-10.40
-6.85
-3.25
0.10
2.96
5.20
6.83
8.02
9.02
10.07
11.25
12.48
13.56
14.31
14.65
14.63
14.40
14.13
13.93
13.81
13.69
13.43
12.85
11.77
10.11
7.95
5.57
3.37
1.70
0.68
0.28
0.30
0.61
1.14
1.92
2.82
3.57
3.84
3.34
2.02
0.14
-1.94
-3.83
-5.41
-6.77
-8.20
-9.98
-12.23
-14.85
-17.49
-19.72
-21.09
-21.30
-20.28
-18.17
-15.32
-12.17
-9.17
-6.74
-5.15
-4.47
-4.54
-4.94
-5.13
-4.62
-3.21
-0.99
1.74
4.55
7.13
9.31
11.01
12.19
12.78
12.73
12.03
10.79
9.23
7.61
6.17
5.05
4.25
3.69
3.26
2.81
2.26
1.59
0.89
0.29
-0.07
-0.19
-0.20
-0.40
-1.12
-2.62
-4.89
-7.65
-10.44
-12.81
-14.45
-15.33
-15.57
-15.33
-14.69
-13.58
-11.92
-9.73
-7.21
-4.65
-2.30
-0.27
1.46
3.04
4.61
6.23
7.90
9.56
11.10
12.34
13.16
13.41
13.10
12.37
11.42
10.45
9.57
8.79
8.03
7.26
6.47
5.69
4.95
4.21
3.38
2.39
1.18
-0.24
-1.82
-3.44
-5.01
-6.42
-7.60
-8.57
-9.33
-9.94
-10.42
-10.76
-11.06
-11.46
-12.15
-13.24
-14.68
-16.18
-17.34
-17.73
-17.03
-15.21
-12.52
-9.44
-6.55
-4.27
-2.78
-1.90
-1.21
-0.30
0.98
2.42
3.60
4.22
4.30
4.25
4.63
5.74
7.40
9.11
10.31
10.71
10.42
9.79
9.11
8.47
7.77
6.93
5.99
5.19
4.80
4.93
5.42
5.90
6.00
5.47
4.28
2.55
0.47
-1.82
-4.29
-6.94
-9.72
-12.51
-15.02
-16.90
-17.80
-17.53
-16.15
-13.91
-11.24
-8.48
-5.84
-3.28
-0.64
2.24
5.42
8.73
11.91
14.58
16.44
17.28
17.08
16.01
14.41
12.76
11.44
10.66
10.40
10.48
10.65
10.78
10.89
11.10
11.50
11.96
12.30
12.27
11.77
10.90
9.86
8.86
7.95
7.03
5.92
4.48
2.76
1.00
-0.50
-1.50
-1.99
-2.19
-2.40
-2.89
-3.76
-4.97
-6.44
-8.06
-9.79
-11.61
-13.46
-15.14
-16.42
-16.99
-16.63
-15.20
-12.79
-9.67
-6.24
-2.98
-0.20
2.00
3.74
5.33
7.02
8.93
10.99
12.97
14.61
15.75
16.37
16.57
16.54
16.42
16.24
15.90
15.24
14.20
12.91
11.67
10.87
10.67
10.97
11.34
11.36
10.76
9.63
8.28
7.06
6.09
5.23
4.27
3.10
1.78
0.55
-0.38
-1.00
-1.51
-2.18
-3.20
-4.51
-5.89
-7.02
-7.77
-8.26
-8.76
-9.59
-10.94
-12.78
-14.94
-17.20
-19.39
-21.28
-22.65
-23.20
-22.60
-20.68
-17.57
-13.71
-9.71
-6.15
-3.37
-1.29
0.37
1.99
3.83
5.88
7.93
9.69
10.95
11.62
11.76
11.51
11.02
10.47
9.97
9.63
9.51
9.59
9.72
9.73
9.40
8.61
7.37
5.82
4.22
2.81
1.73
0.94
0.29
-0.47
-1.52
-2.90
-4.56
-6.31
-8.02
-9.57
-10.95
-12.16
-13.25
-14.23
-15.08
-15.82
-16.47
-17.06
-17.60
-17.94
-17.86
-17.08
-15.40
-12.75
-9.35
-5.52
-1.67
1.81
4.61
6.58
7.75
8.37
8.81
9.48
10.65
12.26
14.01
15.48
16.36
16.65
16.58
16.48
16.51
16.58
16.39
15.66
14.33
12.68
11.14
10.16
9.87
10.07
10.28
9.98
8.89
7.08
4.91
2.80
1.03
-0.41
-1.74
-3.13
-4.64
-6.19
-7.66
-9.05
-10.49
-12.15
-14.13
-16.23
-18.16
-19.49
-20.05
-19.87
-19.19
-18.28
-17.29
-16.18
-14.82
-13.11
-11.09
-8.91
-6.81
-4.93
-3.34
-1.93
-0.50
1.18
3.25
5.69
8.32
10.79
12.73
13.89
14.25
14.06
13.71
13.52
13.58
13.74
13.69
13.16
12.11
10.64
8.98
7.25
5.49
3.71
1.96
0.43
-0.61
-0.97
-0.68
-0.02
0.63
0.95
0.73
0.02
-1.01
-2.13
-3.18
-4.03
-4.60
-4.85
-4.78
-4.51
-4.27
-4.40
-5.16
-6.69
-8.83
-11.28
-13.70
-15.87
-17.77
-19.52
-21.30
-23.24
-25.29
-27.24
-28.66
-29.04
-27.98
-25.35
-21.42
-16.91
-12.70
-9.55
-7.84
-7.53
-8.18
-9.07
-9.24
-7.70
-3.67
3.01
11.58
20.49
27.92
32.51
33.98
33.09
31.14
29.22
27.82
26.76
25.63
24.19
22.48
20.69
18.93
17.14
15.11
12.74
10.14
7.63
5.64
4.53
4.41
5.10
6.14
6.91
6.79
5.45
2.96
-0.14
-3.13
-5.34
-6.48
-6.77
-6.72
-6.98
-7.96
-9.64
-11.67
-13.54
-14.79
-15.23
-14.94
-14.10
-12.86
-11.27
-9.31
-7.00
-4.56
-2.25
-0.31
1.21
2.45
3.61
4.88
6.26
7.65
8.93
10.10
11.31
12.78
14.68
16.92
18.93
19.90
19.03
15.93
10.88
4.84
-0.96
-5.46
-8.28
-9.68
-10.31
-10.78
-11.29
-11.64
-11.47
-10.62
-9.30
-8.04
-7.42
-7.74
-8.84
-10.26
-11.38
-11.79
-11.50
-10.89
-10.47
-10.58
-11.28
-12.27
-13.15
-13.67
-13.80
-13.75
-13.73
-13.73
-13.53
-12.73
-11.08
-8.59
-5.61
-2.65
-0.14
1.81
3.38
4.94
6.72
8.66
10.31
11.12
10.73
9.25
7.22
5.39
4.40
4.44
5.31
6.58
7.84
8.96
10.00
11.02
11.90
12.29
11.76
10.13
7.71
5.18
3.36
2.69
3.08
3.87
4.24
3.59
1.83
-0.60
-3.06
-4.93
-5.97
-6.34
-6.41
-6.66
-7.42
-8.75
-10.42
-12.11
-13.44
-14.20
-14.39
-14.17
-13.74
-13.25
-12.77
-12.31
-11.88
-11.44
-10.89
-10.06
-8.75
-6.87
-4.46
-1.69
1.26
4.22
7.13
9.89
12.32
14.14
15.09
15.08
14.27
13.03
11.74
10.70
10.01
9.70
9.73
10.04
10.55
11.13
11.59
11.73
11.38
10.50
9.11
7.36
5.43
3.58
2.04
1.03
0.60
0.64
0.91
1.12
1.02
0.49
-0.49
-1.86
-3.55
-5.55
-7.78
-10.09
-12.34
-14.40
-16.26
-17.99
-19.69
-21.33
-22.58
-23.02
-22.16
-19.77
-16.04
-11.49
-6.77
-2.41
1.32
4.44
7.05
9.17
10.75
11.74
12.19
12.23
12.10
11.97
11.90
11.87
11.83
11.79
11.81
11.91
12.05
12.05
11.79
11.26
10.59
9.90
9.24
8.45
7.31
5.69
3.72
1.78
0.32
-0.38
-0.38
0.08
0.62
1.06
1.43
1.88
2.46
3.00
3.16
2.54
1.03
-1.16
-3.54
-5.64
-7.18
-8.24
-9.16
-10.37
-12.08
-14.23
-16.55
-18.68
-20.32
-21.32
-21.65
-21.31
-20.26
-18.47
-15.95
-12.86
-9.50
-6.23
-3.34
-0.90
1.18
3.08
4.97
6.85
8.54
9.82
10.49
10.46
9.81
8.76
7.75
7.25
7.66
9.07
11.10
13.00
13.85
12.97
10.31
6.40
2.15
-1.56
-4.24
-5.92
-6.95
-7.76
-8.59
-9.47
-10.29
-11.00
-11.66
-12.37
-13.16
-13.87
-14.12
-13.57
-12.17
-10.21
-8.34
-7.25
-7.28
-8.29
-9.59
-10.25
-9.54
-7.22
-3.66
0.40
4.14
6.96
8.68
9.44
9.60
9.53
9.53
9.78
10.31
11.03
11.75
12.24
12.32
11.99
11.44
10.97
10.84
11.17
11.88
12.80
13.68
14.28
14.32
13.54
11.85
9.46
6.95
5.02
4.25
4.73
5.98
7.16
7.51
6.63
4.65
2.03
-0.78
-3.52
-6.15
-8.69
-11.11
-13.25
-14.90
-15.96
-16.44
-16.49
-16.33
-16.17
-16.19
-16.40
-16.74
-16.95
-16.80
-16.13
-15.04
-13.79
-12.68
-11.78
-10.81
-9.35
-6.97
-3.64
0.28
4.19
7.60
10.27
12.28
13.78
14.82
15.26
14.91
13.77
12.13
10.57
9.65
9.69
10.61
11.98
13.29
14.19
14.61
14.71
14.78
14.95
15.17
15.21
14.77
13.72
12.17
10.45
9.02
8.14
7.82
7.69
7.21
6.01
4.00
1.53
-0.83
-2.60
-3.67
-4.31
-5.03
-6.29
-8.27
-10.83
-13.64
-16.47
-19.21
-21.93
-24.66
-27.28
-29.43
-30.72
-30.85
-29.74
-27.58
-24.66
-21.29
-17.77
-14.33
-11.17
-8.48
-6.31
-4.57
-3.09
-1.65
-0.17
1.28
2.42
3.04
3.03
2.54
1.84
1.19
0.72
0.38
0.05
-0.35
-0.83
-1.33
-1.79
-2.20
-2.53
-2.70
-2.59
-2.13
-1.40
-0.75
-0.67
-1.55
-3.41
-5.74
-7.71
-8.58
-8.10
-6.69
-5.30
-4.87
-5.93
-8.30
-11.20
-13.56
-14.56
-13.84
-11.67
-8.68
-5.61
-2.99
-1.06
0.26
1.17
1.87
2.47
3.05
3.65
4.40
5.41
6.77
8.40
10.09
11.59
12.67
13.23
13.37
13.30
13.26
13.41
13.74
14.08
14.20
13.89
12.99
11.55
9.64
7.42
5.03
2.58
0.18
-2.04
-3.89
-5.20
-5.87
-5.90
-5.41
-4.61
-3.72
-2.93
-2.36
-2.05
-1.98
-2.07
-2.26
-2.45
-2.52
-2.34
-1.79
-0.84
0.49
2.10
3.87
5.70
7.49
9.18
10.77
12.26
13.72
15.12
16.40
17.36
17.83
17.71
17.09
16.24
15.46
14.92
14.58
14.22
13.55
12.46
11.05
9.62
8.41
7.50
6.72
5.82
4.60
3.10
1.56
0.25
-0.61
-1.06
-1.29
-1.50
-1.81
-2.22
-2.69
-3.35
-4.50
-6.47
-9.35
-12.80
-16.10
-18.31
-18.79
-17.39
-14.58
-11.15
-7.88
-5.22
-3.22
-1.71
-0.51
0.44
1.11
1.57
2.01
2.68
3.80
5.30
6.89
8.17
8.82
8.83
8.45
8.05
7.96
8.18
8.51
8.65
8.44
7.98
7.51
7.36
7.60
8.03
8.29
8.03
7.10
5.64
3.96
2.34
0.98
-0.06
-0.81
-1.34
-1.74
-2.12
-2.63
-3.39
-4.47
-5.80
-7.25
-8.63
-9.83
-10.77
-11.51
-12.12
-12.72
-13.40
-14.17
-14.91
-15.44
-15.49
-14.81
-13.33
-11.18
-8.74
-6.44
-4.60
-3.31
-2.34
-1.35
-0.08
1.52
3.23
4.68
5.57
5.85
5.73
5.60
5.83
6.57
7.74
9.07
10.30
11.29
12.09
12.84
13.66
14.51
15.14
15.27
14.74
13.60
12.19
10.91
10.03
9.60
9.37
9.00
8.27
7.14
5.77
4.43
3.27
2.31
1.49
0.71
-0.04
-0.76
-1.43
-2.17
-3.09
-4.37
-6.01
-7.84
-9.56
-10.88
-11.57
-11.72
-11.51
-11.19
-10.90
-10.69
-10.47
-10.28
-10.26
-10.61
-11.47
-12.70
-13.83
-14.19
-13.21
-10.75
-7.21
-3.35
0.00
2.39
3.87
4.91
6.04
7.57
9.37
11.02
12.03
12.08
11.19
9.73
8.18
7.01
6.46
6.55
7.07
7.77
8.39
8.74
8.69
8.11
6.91
5.10
2.93
0.79
-0.82
-1.50
-1.19
-0.24
0.83
1.49
1.49
0.92
0.06
-0.85
-1.73
-2.65
-3.72
-4.92
-6.06
-6.93
-7.39
-7.61
-7.88
-8.53
-9.65
-10.99
-12.06
-12.34
-11.62
-10.08
-8.22
-6.56
-5.40
-4.67
-4.06
-3.24
-2.09
-0.77
0.45
1.37
2.06
2.74
3.68
4.94
6.34
7.58
8.32
8.43
7.94
7.01
5.82
4.59
3.55
2.94
2.92
3.54
4.67
6.00
7.17
7.90
8.04
7.57
6.64
5.43
4.08
2.73
1.43
0.22
-0.91
-1.98
-2.96
-3.80
-4.40
-4.72
-4.75
-4.63
-4.52
-4.60
-5.04
-5.87
-7.06
-8.45
-9.85
-10.99
-11.72
-11.89
-11.48
-10.50
-9.09
-7.44
-5.79
-4.37
-3.29
-2.49
-1.76
-0.87
0.39
2.06
3.99
5.96
7.72
9.08
10.05
10.69
11.06
11.23
11.20
10.94
10.48
9.87
9.20
8.50
7.74
6.85
5.77
4.48
3.08
1.73
0.56
-0.35
-1.03
-1.58
-2.12
-2.73
-3.36
-3.85
-4.04
-3.82
-3.23
-2.50
-1.93
-1.76
-2.05
-2.66
-3.36
-3.94
-4.41
-4.88
-5.53
-6.41
-7.49
-8.65
-9.78
-10.89
-12.02
-13.17
-14.19
-14.83
-14.80
-13.87
-12.01
-9.39
-6.32
-3.16
-0.30
1.94
3.35
3.86
3.61
2.89
2.10
1.60
1.62
2.21
3.31
4.75
6.33
7.87
9.15
9.96
10.20
9.91
9.25
8.43
7.62
6.87
6.18
5.47
4.80
4.22
3.83
3.60
3.40
2.98
2.15
0.90
-0.60
-2.06
-3.22
-3.95
-4.31
-4.43
-4.47
-4.54
-4.64
-4.78
-4.87
-4.86
-4.67
-4.29
-3.72
-3.08
-2.58
-2.49
-3.03
-4.28
-6.08
-8.09
-9.90
-11.24
-11.95
-12.11
-11.90
-11.45
-10.85
-10.10
-9.22
-8.26
-7.26
-6.19
-4.94
-3.38
-1.50
0.58
2.53
4.14
5.43
6.64
8.01
9.61
11.15
12.14
12.17
11.24
9.82
8.56
7.94
7.96
8.12
7.84
6.74
4.89
2.78
1.00
-0.06
-0.37
-0.23
0.05
0.26
0.47
0.84
1.49
2.25
2.78
2.71
1.94
0.73
-0.43
-1.11
-1.17
-0.89
-0.75
-1.11
-1.99
-3.11
-4.10
-4.79
-5.27
-5.77
-6.46
-7.26
-7.92
-8.11
-7.70
-6.83
-5.88
-5.26
-5.19
-5.64
-6.30
-6.72
-6.58
-5.76
-4.39
-2.79
-1.32
-0.22
0.50
1.00
1.45
1.89
2.20
2.28
2.07
1.73
1.51
1.64
2.19
3.00
3.84
4.51
4.96
5.33
5.79
6.43
7.15
7.67
7.63
6.81
5.15
2.81
0.09
-2.58
-4.81
-6.33
-7.01
-6.93
-6.33
-5.52
-4.84
-4.54
-4.73
-5.40
-6.42
-7.54
-8.51
-9.09
-9.13
-8.56
-7.37
-5.68
-3.64
-1.47
0.56
2.18
3.26
3.76
3.79
3.49
3.03
2.56
2.19
2.09
2.34
2.99
3.95
5.01
5.94
6.58
6.95
7.23
7.61
8.20
8.87
9.39
9.49
9.07
8.20
7.10
5.93
4.81
3.79
2.92
2.21
1.68
1.25
0.76
0.02
-1.03
-2.28
-3.47
-4.39
-4.93
-5.26
-5.62
-6.24
-7.10
-8.00
-8.64
-8.82
-8.58
-8.19
-8.03
-8.35
-9.18
-10.31
-11.36
-11.93
-11.77
-10.85
-9.31
-7.42
-5.43
-3.52
-1.77
-0.21
1.12
2.14
2.80
3.07
3.06
2.95
2.99
3.33
4.00
4.90
5.87
6.75
7.50
8.10
8.61
9.02
9.31
9.46
9.48
9.45
9.43
9.45
9.40
9.17
8.63
7.80
6.83
5.95
5.40
5.30
5.66
6.26
6.84
7.09
6.77
5.84
4.43
2.84
1.38
0.31
-0.29
-0.50
-0.51
-0.53
-0.74
-1.27
-2.14
-3.32
-4.73
-6.26
-7.84
-9.44
-11.10
-12.85
-14.63
-16.18
-17.14
-17.13
-15.95
-13.67
-10.63
-7.31
-4.17
-1.55
0.44
1.81
2.70
3.28
3.73
4.14
4.56
4.96
5.29
5.49
5.60
5.72
5.94
6.32
6.77
7.17
7.31
7.13
6.67
6.09
5.64
5.51
5.75
6.26
6.83
7.19
7.16
6.70
5.96
5.20
4.60
4.23
3.88
3.27
2.23
0.82
-0.65
-1.84
-2.52
-2.82
-3.08
-3.66
-4.67
-5.93
-7.10
-7.87
-8.19
-8.34
-8.71
-9.59
-11.00
-12.67
-14.12
-14.92
-14.80
-13.72
-11.78
-9.22
-6.27
-3.15
-0.06
2.79
5.20
7.12
8.57
9.69
10.64
11.51
12.30
12.89
13.09
12.73
11.77
10.36
8.81
7.53
6.86
6.85
7.26
7.64
7.48
6.55
4.89
2.85
0.77
-1.12
-2.83
-4.52
-6.24
-7.89
-9.21
-9.99
-10.17
-9.89
-9.42
-8.95
-8.52
-8.03
-7.41
-6.67
-5.98
-5.49
-5.29
-5.29
-5.29
-5.08
-4.60
-3.93
-3.20
-2.52
-1.91
-1.28
-0.57
0.22
1.00
1.64
2.06
2.33
2.64
3.22
4.27
5.81
7.67
9.56
11.18
12.30
12.88
12.96
12.66
12.11
11.36
10.50
9.62
8.83
8.22
7.84
7.64
7.47
7.17
6.62
5.73
4.47
2.89
1.11
-0.69
-2.32
-3.66
-4.74
-5.68
-6.62
-7.65
-8.72
-9.73
-10.55
-11.11
-11.41
-11.51
-11.46
-11.35
-11.26
-11.31
-11.57
-11.97
-12.32
-12.31
-11.70
-10.39
-8.52
-6.45
-4.58
-3.23
-2.45
-2.10
-1.85
-1.39
-0.54
0.62
1.92
3.13
4.05
4.69
5.04
5.14
4.96
4.49
3.75
2.92
2.27
2.08
2.48
3.36
4.43
5.33
5.80
5.76
5.34
4.79
4.36
4.20
4.38
4.88
5.61
6.45
7.31
8.06
8.59
8.81
8.62
7.99
6.89
5.34
3.42
1.24
-1.07
-3.40
-5.64
-7.70
-9.53
-11.06
-12.23
-13.00
-13.33
-13.25
-12.83
-12.23
-11.56
-10.94
-10.37
-9.75
-8.95
-7.91
-6.66
-5.33
-4.05
-2.88
-1.73
-0.45
0.99
2.55
4.02
5.21
6.04
6.54
6.78
6.82
6.64
6.21
5.62
5.04
4.74
4.94
5.64
6.66
7.70
8.46
8.78
8.57
7.92
7.00
5.98
5.05
4.36
3.93
3.67
3.44
3.07
2.46
1.61
0.63
-0.37
-1.24
-1.87
-2.21
-2.35
-2.51
-3.01
-4.14
-6.02
-8.46
-10.95
-12.86
-13.72
-13.30
-11.81
-9.72
-7.58
-5.78
-4.50
-3.64
-3.01
-2.42
-1.70
-0.82
0.26
1.53
2.97
4.47
5.86
6.92
7.50
7.63
7.49
7.35
7.37
7.46
7.39
6.93
6.01
4.73
3.34
2.03
0.81
-0.38
-1.58
-2.67
-3.39
-3.48
-2.97
-2.10
-1.36
-1.13
-1.58
-2.54
-3.68
-4.66
-5.33
-5.77
-6.20
-6.82
-7.72
-8.80
-9.85
-10.61
-10.84
-10.44
-9.46
-8.08
-6.56
-5.12
-3.92
-2.94
-2.02
-0.96
0.36
1.93
3.56
5.07
6.36
7.46
8.45
9.35
10.02
10.27
9.95
9.14
8.08
7.11
6.39
5.86
5.36
4.73
4.03
3.47
3.29
3.54
4.01
4.34
4.22
3.58
2.57
1.51
0.64
-0.01
-0.54
-1.09
-1.77
-2.51
-3.22
-3.80
-4.25
-4.66
-5.18
-5.87
-6.70
-7.52
-8.13
-8.46
-8.52
-8.43
-8.32
-8.22
-8.03
-7.60
-6.80
-5.62
-4.19
-2.68
-1.28
-0.09
0.93
1.87
2.81
3.78
4.73
5.54
6.13
6.47
6.59
6.59
6.58
6.66
6.79
6.89
6.87
6.70
6.45
6.29
6.37
6.70
7.20
7.64
7.86
7.73
7.30
6.73
6.20
5.80
5.50
5.22
4.82
4.26
3.56
2.85
2.25
1.83
1.49
1.06
0.35
-0.77
-2.24
-3.89
-5.50
-6.92
-8.14
-9.26
-10.40
-11.63
-12.88
-14.05
-15.08
-15.87
-16.35
-16.40
-15.82
-14.49
-12.39
-9.75
-6.91
-4.28
-2.10
-0.39
1.00
2.25
3.49
4.69
5.71
6.39
6.61
6.39
5.83
5.10
4.38
3.84
3.60
3.71
4.14
4.76
5.38
5.76
5.71
5.19
4.34
3.41
2.74
2.53
2.85
3.58
4.47
5.28
5.87
6.20
6.34
6.34
6.23
5.97
5.45
4.62
3.53
2.30
1.11
0.05
-0.91
-1.88
-2.98
-4.26
-5.61
-6.86
-7.86
-8.53
-8.94
-9.15
-9.18
-9.02
-8.63
-8.04
-7.30
-6.54
-5.83
-5.18
-4.57
-4.00
-3.44
-2.86
-2.21
-1.37
-0.29
1.01
2.39
3.62
4.53
5.02
5.12
4.99
4.76
4.55
4.40
4.29
4.17
4.00
3.79
3.63
3.60
3.75
4.07
4.39
4.50
4.22
3.47
2.25
0.69
-1.00
-2.54
-3.68
-4.22
-4.08
-3.47
-2.79
-2.52
-3.01
-4.28
-6.04
-7.75
-8.93
-9.27
-8.76
-7.59
-6.03
-4.37
-2.83
-1.52
-0.49
0.37
1.21
2.17
3.27
4.41
5.44
6.23
6.72
6.95
7.02
6.92
6.65
6.23
5.71
5.29
5.12
5.35
5.92
6.65
7.26
7.54
7.39
6.89
6.22
5.61
5.12
4.71
4.17
3.31
2.05
0.52
-0.96
-2.08
-2.69
-2.82
-2.70
-2.57
-2.59
-2.76
-3.07
-3.52
-4.14
-5.04
-6.20
-7.51
-8.72
-9.58
-9.93
-9.79
-9.30
-8.63
-7.97
-7.35
-6.68
-5.84
-4.73
-3.34
-1.75
-0.06
1.60
3.15
4.43
5.29
5.61
5.38
4.78
4.10
3.62
3.48
3.63
3.93
4.23
4.50
4.74
5.01
5.21
5.25
5.06
4.69
4.35
4.16
4.19
4.31
4.33
4.11
3.64
3.02
2.40
1.93
1.67
1.65
1.85
2.18
2.54
2.82
2.99
3.04
2.94
2.65
2.03
0.91
-0.81
-3.06
-5.62
-8.14
-10.29
-11.80
-12.62
-12.81
-12.55
-12.04
-11.44
-10.83
-10.22
-9.57
-8.82
-7.91
-6.78
-5.38
-3.73
-1.90
-0.04
1.61
2.90
3.75
4.21
4.50
4.80
5.22
5.74
6.26
6.68
6.98
7.26
7.58
7.98
8.36
8.60
8.54
8.15
7.57
7.00
6.62
6.45
6.35
6.10
5.53
4.64
3.55
2.45
1.47
0.61
-0.26
-1.34
-2.82
-4.76
-7.09
-9.62
-12.06
-14.06
-15.29
-15.47
-14.45
-12.35
-9.51
-6.49
-3.87
-2.08
-1.20
-0.99
-0.98
-0.73
-0.01
1.11
2.39
3.54
4.40
4.91
5.10
5.01
4.68
4.18
3.70
3.41
3.51
4.06
4.98
6.02
6.90
7.43
7.52
7.26
6.77
6.21
5.66
5.14
4.58
3.88
2.98
1.87
0.58
-0.86
-2.44
-4.08
-5.69
-7.07
-7.99
-8.39
-8.42
-8.46
-8.97
-10.24
-12.21
-14.45
-16.35
-17.40
-17.40
-16.53
-15.24
-13.98
-12.98
-12.25
-11.54
-10.53
-9.06
-7.18
-5.12
-3.25
-1.86
-1.05
-0.76
-0.80
-0.96
-1.14
-1.16
-0.64
0.91
3.93
8.50
14.07
19.53
23.65
25.71
25.78
24.63
23.31
22.48
22.09
21.48
19.87
16.91
12.89
8.62
5.01
2.58
1.35
0.91
0.58
-0.13
-1.45
-3.26
-5.25
-7.09
-8.62
-9.85
-10.91
-11.95
-12.96
-13.73
-13.94
-13.28
-11.64
-9.24
-6.53
-4.03
-2.14
-0.93
-0.26
0.20
0.73
1.45
2.27
3.02
3.51
3.74
3.90
4.24
5.00
6.18
7.57
8.73
9.29
9.13
8.41
7.57
7.10
7.26
8.01
9.03
9.90
10.29
10.07
9.28
8.11
6.82
5.61
4.64
3.95
3.53
3.23
2.95
2.61
2.20
1.79
1.40
1.01
0.55
-0.07
-0.90
-1.90
-3.05
-4.33
-5.83
-7.66
-9.88
-12.40
-14.98
-17.19
-18.60
-18.84
-17.77
-15.62
-12.90
-10.25
-8.18
-6.83
-5.89
-4.78
-3.00
-0.43
2.62
5.57
7.84
9.16
9.59
9.39
8.77
7.85
6.70
5.44
4.37
3.91
4.33
5.66
7.60
9.63
11.24
12.15
12.36
12.04
11.40
10.52
9.38
7.89
6.10
4.23
2.64
1.68
1.46
1.79
2.20
2.11
1.13
-0.79
-3.33
-5.94
-8.05
-9.32
-9.75
-9.63
-9.37
-9.29
-9.49
-9.89
-10.36
-10.84
-11.33
-11.83
-12.22
-12.30
-11.85
-10.77
-9.17
-7.30
-5.46
-3.90
-2.71
-1.85
-1.18
-0.51
0.29
1.27
2.36
3.40
4.27
4.87
5.26
5.51
5.73
5.94
6.07
6.05
5.88
5.57
5.14
4.60
3.95
3.27
2.69
2.41
2.53
3.00
3.68
4.31
4.74
4.91
4.88
4.68
4.29
3.66
2.72
1.42
-0.24
-2.28
-4.68
-7.38
-10.17
-12.67
-14.51
-15.48
-15.66
-15.28
-14.60
-13.73
-12.55
-10.90
-8.75
-6.30
-3.91
-1.90
-0.38
0.70
1.52
2.21
2.76
3.10
3.18
3.02
2.73
2.44
2.24
2.23
2.58
3.39
4.70
6.37
8.10
9.52
10.36
10.52
10.16
9.58
9.05
8.76
8.67
8.63
8.43
7.97
7.31
6.52
5.70
4.85
3.93
2.84
1.62
0.38
-0.69
-1.49
-2.14
-2.88
-4.07
-5.88
-8.19
-10.55
-12.34
-13.05
-12.50
-10.86
-8.62
-6.32
-4.40
-3.05
-2.26
-1.90
-1.83
-1.85
-1.78
-1.41
-0.63
0.52
1.84
3.01
3.84
4.36
4.80
5.44
6.32
7.19
7.61
7.25
6.13
4.72
3.63
3.30
3.75
4.65
5.50
6.06
6.38
6.70
7.17
7.65
7.76
7.08
5.48
3.21
0.75
-1.43
-3.09
-4.28
-5.27
-6.34
-7.69
-9.33
-11.19
-13.21
-15.39
-17.76
-20.26
-22.63
-24.40
-25.05
-24.17
-21.76
-18.22
-14.20
-10.32
-6.94
-4.05
-1.43
1.15
3.75
6.22
8.30
9.79
10.64
10.95
10.93
10.79
10.65
10.58
10.53
10.46
10.37
10.25
10.12
9.94
9.71
9.37
8.90
8.35
7.80
7.30
6.80
6.23
5.45
4.41
3.22
2.08
1.19
0.64
0.39
0.20
-0.15
-0.79
-1.67
-2.67
-3.58
-4.29
-4.79
-5.23
-5.85
-6.90
-8.52
-10.69
-13.10
-15.31
-16.81
-17.24
-16.49
-14.77
-12.52
-10.23
-8.29
-6.84
-5.84
-5.05
-4.25
-3.25
-1.98
-0.48
1.17
2.87
4.59
6.24
7.78
9.06
9.98
10.44
10.51
10.37
10.24
10.30
10.58
11.00
11.38
11.56
11.47
11.10
10.50
9.74
8.87
7.90
6.85
5.71
4.49
3.20
1.85
0.51
-0.76
-1.87
-2.77
-3.44
-3.95
-4.43
-5.07
-6.02
-7.24
-8.53
-9.58
-10.03
-9.67
-8.50
-6.68
-4.55
-2.52
-0.96
-0.12
0.02
-0.16
-0.04
1.04
3.33
6.55
9.86
12.37
13.47
13.10
11.60
9.51
7.23
4.98
2.87
1.05
-0.20
-0.79
-0.80
-0.49
-0.25
-0.25
-0.42
-0.51
-0.32
0.14
0.69
1.15
1.42
1.57
1.64
1.64
1.42
0.78
-0.37
-1.98
-3.87
-5.80
-7.58
-9.14
-10.54
-11.86
-13.19
-14.57
-15.92
-17.09
-17.82
-17.84
-16.93
-15.02
-12.29
-9.07
-5.79
-2.81
-0.30
1.75
3.47
5.05
6.61
8.19
9.65
10.76
11.30
11.09
10.17
8.70
7.02
5.49
4.44
4.01
4.14
4.59
5.03
5.11
4.67
3.73
2.59
1.62
1.15
1.34
2.12
3.19
4.26
5.09
5.60
5.82
5.74
5.36
4.60
3.45
2.04
0.63
-0.52
-1.29
-1.80
-2.40
-3.41
-5.06
-7.27
-9.73
-12.08
-14.05
-15.53
-16.51
-16.93
-16.71
-15.69
-13.84
-11.30
-8.37
-5.39
-2.63
-0.19
1.94
3.86
5.59
7.18
8.58
9.76
10.62
11.05
10.94
10.23
9.05
7.70
6.55
5.84
5.60
5.69
5.90
6.10
6.35
6.77
7.42
8.15
8.69
8.79
8.33
7.40
6.24
5.04
3.91
2.79
1.59
0.26
-1.14
-2.47
-3.50
-4.06
-4.13
-3.96
-3.98
-4.63
-6.17
-8.49
-11.18
-13.61
-15.29
-16.09
-16.34
-16.62
-17.55
-19.50
-22.31
-25.39
-27.93
-29.19
-28.74
-26.70
-23.65
-20.39
-17.76
-16.42
-16.78
-18.70
-21.36
-23.22
-22.32
-17.07
-7.06
6.40
20.67
32.66
40.14
42.56
41.05
37.64
34.23
31.85
30.53
29.84
29.37
29.16
29.56
30.84
32.90
35.08
36.46
36.13
33.71
29.48
24.47
19.91
16.87
15.78
16.24
17.28
17.75
16.75
13.91
9.48
4.23
-0.79
-4.54
-6.35
-6.02
-4.04
-1.44
0.46
0.38
-2.45
-7.91
-14.94
-21.68
-26.00
-26.36
-22.48
-15.66
-8.28
-2.90
-1.05
-2.62
-6.14
-9.53
-11.32
-11.21
-10.09
-9.21
-9.28
-9.92
-9.83
-7.45
-1.82
6.77
16.69
25.60
31.16
31.99
28.22
21.26
13.22
5.85
-0.01
-4.55
-8.34
-11.71
-14.17
-14.88
-13.14
-9.24
-4.39
-0.41
1.28
0.37
-2.42
-5.93
-9.11
-11.28
-11.93
-10.68
-7.37
-2.61
2.10
4.52
2.78
-3.61
-13.41
-24.18
-33.42
-39.71
-42.88
-43.44
-41.88
-38.10
-31.81
-23.20
-13.32
-3.90
3.42
7.93
10.01
10.60
10.75
11.00
11.41
11.83
12.17
12.53
13.06
13.69
14.10
13.88
12.83
11.10
9.21
7.62
6.49
5.64
4.75
3.71
2.77
2.40
2.92
4.33
6.25
8.06
9.17
9.24
8.30
6.61
4.58
2.64
1.23
0.61
0.92
1.96
3.27
4.26
4.56
4.03
2.88
1.44
0.04
-1.12
-2.04
-2.84
-3.66
-4.62
-5.80
-7.23
-8.82
-10.48
-11.97
-13.03
-13.39
-12.99
-11.89
-10.36
-8.74
-7.35
-6.38
-5.87
-5.72
-5.74
-5.67
-5.28
-4.35
-2.76
-0.49
2.24
5.01
7.25
8.47
8.41
7.27
5.59
4.06
3.20
3.21
3.88
4.82
5.64
6.17
6.43
6.52
6.51
6.38
6.01
5.29
4.19
2.79
1.31
0.01
-0.84
-1.14
-0.95
-0.51
-0.09
0.11
0.03
-0.30
-0.84
-1.61
-2.64
-3.90
-5.21
-6.28
-6.79
-6.61
-5.88
-4.93
-4.19
-4.05
-4.59
-5.65
-6.89
-7.92
-8.52
-8.61
-8.18
-7.32
-6.06
-4.53
-2.92
-1.47
-0.35
0.52
1.43
2.76
4.68
6.99
9.14
10.54
10.78
9.97
8.52
6.93
5.60
4.66
4.11
3.91
4.03
4.40
4.87
5.15
5.03
4.40
3.33
2.09
0.98
0.18
-0.28
-0.53
-0.77
-1.14
-1.65
-2.21
-2.69
-2.99
-3.14
-3.18
-3.21
-3.28
-3.39
-3.54
-3.85
-4.51
-5.74
-7.66
-10.16
-12.86
-15.23
-16.77
-17.20
-16.52
-14.98
-12.93
-10.69
-8.40
-6.09
-3.71
-1.25
1.21
3.56
5.66
7.45
8.92
10.12
11.05
11.69
12.01
11.98
11.64
11.07
10.33
9.50
8.58
7.66
6.89
6.44
6.50
7.06
7.92
8.73
9.08
8.77
7.82
6.49
5.06
3.76
2.67
1.74
0.87
-0.06
-1.20
-2.66
-4.44
-6.44
-8.36
-9.88
-10.71
-10.84
-10.49
-10.10
-10.09
-10.79
-12.24
-14.20
-16.23
-17.79
-18.31
-17.45
-15.24
-12.16
-8.96
-6.35
-4.71
-3.98
-3.75
-3.51
-2.96
-2.04
-0.92
0.28
1.49
2.69
3.90
5.00
5.85
6.38
6.63
6.70
6.73
6.78
6.81
6.75
6.58
6.32
6.06
5.86
5.76
5.72
5.60
5.24
4.49
3.41
2.24
1.39
1.20
1.81
3.02
4.31
5.13
5.13
4.24
2.74
1.04
-0.43
-1.41
-1.82
-1.77
-1.47
-1.18
-1.18
-1.65
-2.69
-4.23
-6.10
-8.05
-9.86
-11.36
-12.48
-13.22
-13.63
-13.71
-13.45
-12.84
-11.84
-10.50
-8.93
-7.31
-5.80
-4.51
-3.44
-2.48
-1.40
0.03
1.97
4.42
7.18
9.92
12.26
13.91
14.75
14.78
14.15
13.02
11.56
9.88
8.11
6.46
5.19
4.56
4.73
5.63
6.94
8.15
8.82
8.65
7.72
6.36
5.04
4.07
3.52
3.24
2.95
2.49
1.86
1.10
0.19
-0.98
-2.61
-4.79
-7.36
-9.97
-12.22
-13.87
-14.90
-15.50
-15.79
-15.82
-15.45
-14.52
-13.00
-10.96
-8.61
-6.16
-3.82
-1.73
-0.06
1.12
1.84
2.30
2.75
3.43
4.36
5.32
5.98
6.05
5.52
4.61
3.74
3.29
3.45
4.13
5.18
6.36
7.53
8.47
8.98
8.79
7.78
6.07
4.20
2.91
2.78
4.03
6.25
8.56
9.95
9.80
7.97
4.90
1.30
-2.16
-5.05
-7.30
-9.10
-10.69
-12.18
-13.51
-14.44
-14.74
-14.36
-13.42
-12.24
-11.11
-10.15
-9.27
-8.26
-6.92
-5.25
-3.47
-1.80
-0.43
0.69
1.76
2.98
4.50
6.31
8.31
10.29
12.10
13.55
14.45
14.71
14.36
13.68
13.08
13.10
14.07
16.16
19.21
22.87
26.47
29.11
29.84
27.93
23.22
16.33
8.49
1.15
-4.63
-8.44
-10.62
-11.84
-12.71
-13.51
-14.21
-14.66
-14.87
-14.94
-15.01
-15.10
-15.05
-14.69
-14.00
-13.12
-12.38
-12.14
-12.66
-14.00
-16.01
-18.33
-20.48
-21.92
-22.17
-20.95
-18.34
-14.69
-10.71
-7.12
-4.45
-2.88
-2.15
-1.78
-1.26
-0.36
0.93
2.41
3.90
5.41
7.06
8.97
11.07
13.12
14.69
15.52
15.57
15.07
14.45
14.10
14.16
14.55
14.99
15.15
14.79
13.86
12.43
10.64
8.69
6.77
5.01
3.52
2.38
1.57
1.01
0.56
0.12
-0.38
-0.96
-1.62
-2.43
-3.50
-4.91
-6.61
-8.39
-9.95
-11.06
-11.73
-12.15
-12.68
-13.61
-14.97
-16.50
-17.70
-18.13
-17.55
-16.06
-13.94
-11.55
-9.14
-6.80
-4.52
-2.33
-0.30
1.49
3.00
4.36
5.74
7.28
8.95
10.49
11.56
11.88
11.41
10.36
9.13
8.09
7.49
7.30
7.27
7.14
6.65
5.75
4.53
3.19
1.98
1.08
0.62
0.66
1.14
1.89
2.62
3.04
2.92
2.20
0.97
-0.50
-1.91
-3.00
-3.70
-4.09
-4.42
-4.96
-5.88
-7.17
-8.66
-9.99
-10.85
-11.04
-10.56
-9.57
-8.32
-6.98
-5.72
-4.66
-3.83
-3.27
-2.86
-2.36
-1.55
-0.27
1.44
3.33
5.04
6.24
6.75
6.56
5.86
4.90
3.96
3.22
2.70
2.29
1.84
1.26
0.63
0.26
0.44
1.26
2.51
3.71
4.40
4.36
3.77
3.14
2.98
3.48
4.47
5.45
5.89
5.46
4.11
1.98
-0.79
-3.98
-7.29
-10.11
-11.67
-11.31
-8.90
-5.13
-1.30
1.22
1.66
0.21
-2.06
-3.85
-4.32
-3.42
-1.79
-0.26
0.66
1.07
1.52
2.56
4.44
6.90
9.39
11.33
12.44
12.81
12.76
12.67
12.65
12.63
12.40
