1480594013.00
64.000000
-0.00
-0.00
-0.00
-0.00
-0.00
-0.00
-0.00
-0.00
-0.00
-0.00
0.00
0.01
0.01
0.00
-0.02
-0.05
-0.06
-0.01
0.13
0.36
0.68
1.04
1.39
1.70
1.97
2.22
2.52
2.90
3.43
4.05
4.71
5.32
5.85
6.28
6.67
7.12
7.71
8.55
9.54
10.55
11.43
12.07
12.51
12.95
13.65
14.84
16.79
19.29
22.00
24.52
26.55
28.16
29.71
31.80
34.91
39.55
45.32
51.55
57.38
62.24
66.11
69.59
73.70
79.31
87.16
96.71
106.88
116.31
124.06
130.02
135.02
140.86
146.75
155.26
166.98
181.68
197.66
211.58
218.81
214.52
195.35
160.81
114.23
60.96
6.99
-43.42
-88.99
-131.26
-173.11
-216.90
-263.35
-310.95
-357.54
-400.81
-439.12
-471.33
-496.38
-512.80
-518.74
-512.56
-493.43
-462.24
-421.25
-373.54
-322.15
-269.48
-216.98
-165.36
-115.10
-66.75
-21.32
19.99
55.99
85.99
109.93
128.39
142.35
152.83
160.61
166.06
169.26
170.14
168.74
165.29
160.27
154.24
147.71
141.03
134.35
127.64
120.83
113.87
106.78
99.65
92.62
85.81
79.29
73.09
67.19
61.57
56.21
51.11
46.27
41.72
37.46
33.48
29.78
26.35
23.18
20.27
17.61
15.20
13.04
11.12
9.42
7.93
6.64
5.53
4.58
3.78
3.11
2.55
2.09
1.71
1.40
1.15
0.95
0.79
0.66
0.56
0.48
0.41
0.36
0.32
0.29
0.26
0.24
0.22
0.21
0.19
0.18
0.17
0.16
0.15
0.15
0.14
0.13
0.13
0.12
0.12
0.11
0.11
0.10
0.10
0.09
0.09
0.09
0.09
0.08
0.08
0.08
0.07
0.07
0.07
0.07
0.07
0.06
0.06
0.06
0.06
0.05
0.05
0.05
0.05
0.05
0.05
0.05
0.04
0.05
0.04
0.04
0.04
0.04
0.04
0.03
0.04
0.03
0.04
0.04
0.05
0.06
0.07
0.09
0.11
0.14
0.17
0.20
0.24
0.27
0.32
0.35
0.40
0.44
0.48
0.53
0.57
0.62
0.68
0.73
0.80
0.87
0.94
1.03
1.12
1.23
1.34
1.48
1.63
1.80
2.00
2.23
2.45
2.68
2.89
3.10
3.33
3.60
3.93
4.33
4.79
5.28
5.78
6.27
6.76
7.26
7.80
8.43
9.15
9.94
10.75
11.56
12.34
13.09
13.87
14.72
15.71
16.79
17.85
18.71
19.15
18.97
18.09
16.56
14.47
11.94
9.05
5.75
1.89
-2.61
-7.72
-13.20
-18.60
-23.42
-27.22
-29.83
-31.42
-32.42
-33.34
-34.53
-36.07
-37.65
-38.90
-39.49
-39.29
-38.55
-37.67
-37.12
-37.30
-38.56
-41.14
-44.99
-49.32
-52.58
-52.71
-47.91
-37.65
-23.13
-7.08
7.35
17.69
23.19
24.78
24.43
24.12
25.16
27.92
32.16
37.35
42.94
48.38
53.06
56.37
57.73
56.83
53.67
48.82
43.38
38.54
35.24
33.64
33.09
32.34
30.20
26.21
21.05
16.17
13.12
12.82
15.18
19.39
24.38
29.43
33.93
37.67
40.64
42.93
44.60
45.84
46.97
48.31
49.93
51.34
51.67
49.98
45.81
39.63
32.95
28.06
27.33
32.54
44.10
60.83
79.95
97.84
111.07
117.50
117.02
111.31
103.07
94.77
87.72
81.59
74.83
65.71
53.42
38.80
24.29
13.08
7.82
9.40
16.33
25.07
31.14
30.77
22.04
5.24
-17.78
-44.71
-73.74
-103.75
-133.96
-163.38
-190.59
-213.94
-231.99
-243.75
-248.45
-245.14
-232.52
-209.49
-175.98
-133.76
-86.32
-37.96
7.57
48.07
82.86
112.18
136.21
154.62
166.81
172.52
172.21
166.97
157.93
145.70
130.12
110.48
85.97
56.23
21.63
-16.61
-56.59
-96.17
-133.56
-167.86
-198.96
-226.99
-251.20
-269.24
-277.28
-271.39
-249.42
-212.59
-165.78
-116.24
-71.42
-37.02
-16.13
-9.34
-15.62
-32.95
-58.65
-89.36
-121.12
-149.75
-171.57
-184.06
-186.35
-179.36
-165.61
-148.52
-131.34
-116.12
-103.04
-90.54
-76.33
-58.82
-38.05
-15.61
6.28
26.14
43.89
60.59
77.38
94.46
110.87
125.08
135.84
142.96
147.29
150.16
152.84
156.06
160.07
164.81
170.07
175.58
180.86
185.18
187.51
186.77
182.10
173.30
160.93
146.17
130.29
114.17
97.54
79.80
60.83
41.18
21.85
3.95
-11.58
-24.10
-33.27
-39.26
-42.00
-40.92
-35.60
-26.48
-15.05
-3.23
7.28
15.66
21.10
24.30
27.52
33.23
42.48
54.62
67.96
80.78
92.10
98.66
99.47
96.95
94.66
94.31
95.39
96.57
96.67
94.97
84.62
62.48
32.80
3.68
-19.13
-33.97
-41.89
-45.32
-47.22
-60.76
-93.22
-139.69
-188.65
-231.77
-266.48
-293.52
-315.15
-334.41
-368.51
-427.92
-507.85
-594.64
-677.64
-751.85
-814.84
-864.74
-813.78
-632.04
-374.31
-126.45
65.12
196.24
280.04
331.96
364.68
387.06
390.73
371.16
336.56
301.83
276.91
264.49
263.18
269.90
281.20
283.33
268.49
241.14
212.56
190.84
178.47
174.51
177.02
184.13
187.79
183.20
171.68
157.03
140.01
118.67
91.70
60.67
29.68
0.25
-26.16
-47.39
-61.52
-68.23
-67.98
-61.19
-48.50
-31.77
-15.39
-3.41
2.52
3.67
2.82
2.76
4.91
8.85
12.62
13.99
11.76
6.15
-1.22
-8.21
-13.03
-14.87
-14.00
-11.54
-9.22
-7.84
-7.94
-9.53
-12.32
-15.96
-20.18
-24.67
-29.08
-33.02
-36.25
-39.01
-42.07
-46.31
-52.32
-59.87
-67.88
-75.18
-81.02
-85.41
-89.17
-93.08
-97.26
-100.89
-103.17
-102.59
-98.90
-92.90
-86.04
-79.79
-75.34
-73.37
-73.78
-75.18
-74.49
-67.63
-50.76
-22.38
15.20
56.11
92.90
119.52
133.49
136.48
132.49
125.49
117.66
109.09
98.93
86.82
73.65
61.10
50.61
42.51
35.89
29.22
21.08
11.11
0.03
-10.67
-19.45
-25.44
-28.58
-29.85
-30.83
-33.00
-37.19
-43.35
-50.61
-57.75
-63.75
-67.87
-70.32
-72.08
-74.47
-78.58
-84.82
-92.64
-100.79
-107.78
-112.01
-112.88
-110.90
-107.29
-103.37
-99.80
-95.98
-89.86
-81.77
-70.34
-54.17
-32.56
-6.27
21.75
46.35
61.22
60.88
42.71
8.78
-35.07
-80.87
-120.92
-149.90
-165.81
-169.63
-164.18
-152.71
-137.54
-120.10
-101.06
-80.66
-59.14
-36.91
-14.49
7.71
29.86
52.88
77.91
105.65
135.66
166.10
193.93
215.85
229.39
233.64
229.57
219.46
206.03
191.51
176.99
162.44
147.35
131.66
115.97
101.51
89.37
79.93
72.66
66.39
60.04
53.16
46.60
41.87
40.35
42.51
47.68
54.42
60.99
66.03
68.91
70.86
73.32
77.06
81.68
86.03
89.00
90.06
89.39
87.67
87.96
92.57
101.97
114.54
127.73
139.53
149.10
156.58
162.44
170.51
183.27
200.65
219.86
237.18
250.02
257.67
260.92
261.48
266.07
280.50
307.21
343.87
384.52
422.12
450.64
466.48
440.96
361.08
233.64
84.16
-57.94
-174.12
-260.01
-320.05
-361.05
-388.71
-402.35
-401.22
-386.99
-364.65
-340.50
-319.45
-303.97
-294.21
-289.08
-283.48
-273.15
-256.55
-235.45
-213.47
-193.94
-178.75
-168.30
-162.15
-157.65
-153.03
-147.91
-142.59
-136.49
-127.16
-111.29
-87.30
-56.65
-23.05
8.04
31.61
45.09
49.20
47.00
42.18
37.22
33.04
30.06
28.86
30.58
36.42
46.62
59.65
72.28
80.42
80.53
71.27
54.06
32.64
11.59
-5.30
-16.21
-21.24
-21.69
-18.93
-13.90
-7.08
1.12
9.85
17.87
23.42
25.18
22.79
16.98
9.26
1.34
-5.33
-9.90
-12.06
-11.91
-9.65
-5.50
0.18
6.75
13.10
17.86
19.57
17.21
10.65
0.76
-10.89
-22.48
-32.54
-40.33
-45.84
-49.58
-52.04
-53.43
-53.59
-52.21
-49.21
-45.07
-40.72
-37.33
-35.84
-36.56
-39.10
-42.58
-46.07
-49.00
-51.39
-53.74
-56.65
-60.46
-64.98
-69.59
-73.52
-76.17
-77.47
-77.65
-77.01
-75.61
-73.19
-69.44
-64.32
-58.32
-52.32
-47.18
-43.25
-40.09
-36.60
-31.51
-23.95
-13.93
-2.39
9.16
19.21
26.73
31.56
34.26
35.74
36.74
37.63
38.30
38.58
38.50
38.53
39.44
41.97
46.44
52.49
59.21
65.50
70.60
74.55
78.20
83.02
90.33
100.81
114.14
129.25
144.82
159.91
174.11
187.16
198.50
206.71
209.88
206.34
195.73
179.59
161.02
143.54
129.81
120.61
114.78
109.88
103.26
92.98
78.24
59.43
37.85
15.55
-4.96
-21.22
-31.44
-35.19
-33.87
-30.46
-28.88
-33.13
-46.24
-69.52
-101.93
-139.87
-177.71
-209.22
-229.47
-236.56
-232.18
-220.85
-207.85
-197.08
-189.87
-185.27
-181.69
-178.31
-175.91
-176.25
-180.72
-189.09
-199.35
-208.66
-214.82
-217.41
-217.85
-218.51
-221.13
-225.99
-231.84
-236.92
-240.16
-241.75
-242.90
-244.71
-247.25
-249.40
-249.54
-246.46
-240.00
-230.92
-220.06
-207.59
-192.76
-174.32
-151.31
-123.63
-92.22
-58.48
-23.66
11.75
48.18
86.68
128.24
172.62
217.67
259.27
292.45
313.19
320.40
316.49
306.58
296.42
290.09
288.64
290.14
291.05
287.86
278.59
263.48
244.77
225.95
210.54
201.00
197.58
198.81
202.51
207.21
212.83
220.54
232.05
247.98
267.38
287.79
306.52
321.72
332.43
338.12
338.01
331.55
318.71
300.86
279.55
256.39
232.54
208.42
184.36
161.41
142.43
130.65
128.50
133.57
141.07
146.22
146.15
140.23
129.22
115.34
99.34
81.51
56.87
21.95
-22.21
-70.32
-116.17
-155.91
-186.91
-211.14
-231.36
-257.65
-297.05
-349.25
-407.42
-463.17
-511.70
-549.69
-580.73
-608.98
-647.82
-706.49
-785.12
-875.91
-969.14
-1059.40
-1142.24
-1221.31
-1235.15
-1149.16
-975.39
-765.86
-570.99
-410.96
-304.91
-224.38
-150.80
-76.80
-13.11
28.80
51.56
61.59
68.47
79.32
100.66
130.19
164.25
191.96
205.93
206.32
199.05
191.66
188.02
190.95
197.05
203.50
204.34
196.55
181.76
164.52
149.80
139.72
135.54
134.81
135.83
136.03
134.76
133.63
135.11
141.25
152.14
167.13
183.97
201.32
218.41
235.68
254.41
275.51
298.99
323.63
347.82
369.83
389.11
406.50
423.90
443.96
469.54
503.21
546.02
596.11
648.02
693.51
723.93
733.39
721.14
691.72
652.74
611.48
572.01
534.48
496.58
456.01
412.22
366.75
321.94
279.22
238.30
197.38
154.48
108.77
61.13
14.18
-29.03
-66.24
-96.92
-122.39
-145.18
-168.08
-193.35
-222.54
-256.22
-293.43
-331.06
-363.39
-382.95
-382.55
-358.00
-310.00
-244.46
-170.93
-99.87
-40.14
2.46
25.45
28.94
14.68
-14.32
-54.08
-99.67
-145.38
-185.29
-214.11
-227.98
-225.29
-207.27
-177.58
-141.37
-103.67
-67.93
-35.49
-5.82
22.14
48.67
72.54
91.35
102.92
106.66
104.33
99.44
95.66
94.93
96.46
97.12
92.96
81.02
60.26
31.64
-2.69
-39.91
-76.52
-108.18
-129.96
-137.44
-128.64
-105.56
-74.35
-43.73
-22.08
-14.59
-22.19
-42.24
-70.76
-104.78
-143.33
-186.46
-233.55
-281.67
-325.24
-357.08
-370.72
-362.53
-333.67
-290.55
-243.62
-204.94
-185.41
-192.28
-227.79
-288.92
-368.17
-455.14
-538.43
-607.91
-656.55
-681.68
-685.15
-672.18
-649.31
-622.29
-594.70
-567.71
-540.94
-513.51
-484.56
-453.34
-419.18
-381.65
-341.07
-298.81
-257.26
-218.99
-186.00
-158.85
-136.46
-116.60
-96.77
-75.24
-51.59
-26.77
-2.58
19.33
38.07
53.98
68.36
82.74
98.37
115.69
134.32
153.07
170.09
183.22
190.66
191.68
187.24
179.95
173.15
169.57
170.10
173.61
177.75
180.48
181.31
181.46
182.99
187.50
195.08
204.50
214.04
222.76
231.16
240.99
254.46
273.58
299.44
332.17
370.78
412.72
453.61
487.67
508.91
513.17
499.95
472.94
438.83
404.72
375.54
352.73
334.72
318.77
302.90
286.67
270.86
256.40
243.69
232.63
223.25
215.95
211.18
208.45
205.48
198.19
181.77
152.33
108.33
51.15
-15.18
-84.87
-151.41
-208.62
-251.56
-277.39
-285.75
-278.74
-260.09
-233.89
-203.30
-170.01
-134.17
-95.24
-52.72
-6.57
42.78
94.88
149.84
208.59
272.43
341.54
413.35
481.52
536.78
569.61
573.77
548.89
500.86
439.51
375.02
314.77
262.27
218.14
182.09
154.49
136.36
128.43
129.90
138.03
148.89
158.70
165.00
167.05
165.60
161.84
156.62
149.90
140.98
129.04
113.83
96.05
77.25
59.26
43.55
30.66
20.12
10.79
1.51
-8.39
-18.88
-29.32
-38.91
-47.20
-54.31
-60.90
-67.91
-75.94
-85.14
-95.19
-105.39
-115.11
-124.06
-132.33
-140.43
-149.22
-159.85
-173.37
-190.26
-209.61
-228.98
-244.65
-252.78
-251.03
-239.84
-222.69
-205.23
-193.38
-191.35
-200.59
-219.75
-245.83
-275.56
-306.50
-337.47
-368.34
-399.72
-432.67
-468.72
-509.51
-555.93
-607.10
-659.29
-706.10
-739.75
-753.66
-744.62
-713.99
-667.03
-610.77
-551.73
-494.16
-439.90
-389.02
-341.10
-295.85
-253.34
-213.58
-176.13
-140.10
-104.34
-67.91
-30.44
7.73
45.79
82.93
118.59
152.86
186.32
219.74
253.82
289.06
325.86
364.54
405.10
446.61
486.80
522.06
548.32
562.33
562.75
550.34
527.35
496.27
458.82
415.91
367.97
315.73
260.51
204.19
148.85
96.50
48.85
7.26
-27.32
-54.55
-74.72
-88.71
-97.78
-103.26
-106.08
-106.80
-105.63
-102.78
-98.91
-95.23
-93.21
-94.01
-97.73
-103.33
-109.07
-113.57
-116.65
-119.55
-124.23
-132.34
-144.47
-160.14
-178.15
-197.14
-215.88
-233.26
-248.45
-260.98
-271.06
-279.64
-287.90
-296.55
-305.02
-311.50
-313.40
-308.39
-295.18
-273.95
-246.05
-213.37
-177.71
-140.41
-102.37
-64.18
-26.56
9.57
43.37
74.35
102.79
129.70
156.47
184.31
213.91
245.30
277.93
310.73
342.22
370.51
393.67
410.17
419.50
422.44
420.73
416.25
410.01
401.55
389.05
370.18
343.19
307.77
265.21
217.94
168.84
120.53
75.22
34.71
0.63
-25.61
-43.08
-51.74
-52.77
-48.38
-40.99
-32.33
-22.60
-10.58
5.60
27.04
53.09
81.11
107.32
128.05
141.09
146.49
146.52
145.14
146.80
155.11
171.41
193.85
217.44
235.29
240.79
229.81
201.93
160.14
109.41
54.82
0.35
-51.62
-100.33
-146.01
-189.45
-231.21
-271.02
-307.29
-337.41
-358.69
-369.39
-369.33
-359.56
-341.55
-316.56
-285.46
-249.23
-209.35
-167.73
-126.07
-85.25
-45.26
-5.86
32.48
68.47
100.60
128.40
153.24
178.10
206.19
239.31
276.85
316.03
353.09
384.64
408.59
424.04
430.74
428.56
417.50
398.33
373.03
344.67
316.23
289.33
263.35
235.81
203.80
165.72
122.36
76.61
32.21
-8.10
-43.72
-76.19
-108.45
-143.46
-182.85
-226.30
-271.54
-314.43
-349.66
-371.77
-376.50
-362.55
-332.80
-294.11
-255.60
-225.50
-208.01
-201.69
-200.33
-196.00
-182.94
-160.41
-133.07
-108.82
-95.51
-97.89
-116.50
-148.31
-188.30
-230.91
-270.39
-300.94
-316.85
-313.45
-289.07
-246.63
-193.84
-141.23
-98.89
-73.01
-64.10
-67.58
-76.16
-82.97
-84.10
-79.39
-71.50
-64.06
-59.67
-58.67
-59.31
-58.68
-54.20
-44.36
-28.60
-6.45
23.03
61.06
107.65
160.14
212.71
257.62
287.90
299.94
294.17
273.85
243.00
204.69
161.22
115.24
70.91
33.66
8.14
-4.17
-6.18
-4.18
-4.93
-12.44
-26.23
-41.97
-53.79
-57.14
-50.85
-37.40
-21.58
-8.51
-1.71
-2.33
-9.89
-23.34
-42.13
-66.08
-94.30
-124.01
-150.38
-167.82
-172.30
-163.36
-144.24
-120.12
-95.25
-71.02
-45.73
-16.30
19.23
60.13
102.63
141.17
169.93
184.20
181.29
160.59
123.25
71.62
8.65
-62.65
-139.17
-217.27
-292.14
-357.47
-406.30
-432.72
-433.89
-411.28
-370.28
-318.41
-262.80
-208.11
-156.06
-106.31
-58.02
-11.10
33.67
75.28
113.28
148.04
180.10
209.25
233.75
250.93
258.49
256.26
246.89
235.06
225.26
219.38
215.70
209.64
196.23
172.68
140.00
102.66
66.66
37.33
17.75
8.42
8.15
15.40
29.19
49.13
74.55
103.78
133.81
160.93
182.26
197.25
208.24
219.22
233.51
251.22
268.64
279.90
279.97
267.64
246.08
220.99
197.33
176.86
157.91
137.10
111.79
81.20
45.89
6.26
-38.55
-89.63
-145.95
-202.39
-249.95
-278.56
-281.14
-256.53
-209.94
-150.65
-88.44
-30.80
17.86
55.52
81.34
95.08
97.36
90.14
76.61
60.43
44.74
31.76
22.82
18.56
18.62
21.34
23.95
23.72
19.77
14.17
11.26
15.33
27.80
45.90
63.76
75.49
78.18
73.16
64.80
57.81
54.66
54.67
54.69
51.08
41.34
25.06
3.64
-20.52
-45.21
-69.27
-92.88
-117.16
-143.24
-171.22
-199.63
-225.82
-246.90
-260.90
-267.31
-266.93
-261.16
-251.21
-238.05
-222.65
-206.29
-190.28
-175.11
-159.57
-140.63
-114.67
-79.24
-34.97
13.88
60.28
96.86
118.33
123.14
113.72
95.40
74.58
57.00
46.26
43.03
45.04
47.96
47.04
38.95
23.29
2.75
-18.12
-34.69
-43.96
-45.16
-39.30
-28.24
-13.86
1.97
17.29
29.78
37.20
38.10
32.45
21.93
9.30
-2.44
-11.20
-16.54
-19.67
-22.97
-28.87
-38.75
-52.13
-66.60
-78.66
-85.12
-84.41
-77.21
-66.00
-54.04
-44.01
-37.35
-34.27
-33.98
-35.47
-37.75
-40.08
-42.00
-43.30
-44.18
-45.17
-47.11
-50.58
-55.36
-60.12
-62.57
-60.36
-52.21
-38.62
-21.66
-4.04
12.32
26.86
40.09
52.39
62.81
68.89
67.88
58.51
42.17
22.69
4.65
-8.59
-16.18
-19.48
-20.67
-21.27
-21.44
-20.49
-17.66
-12.84
-6.55
0.85
9.89
22.01
38.80
60.62
85.63
109.82
128.81
139.86
143.29
141.99
139.90
139.90
142.63
146.36
147.82
143.82
132.05
111.19
80.26
38.80
-12.28
-69.39
-126.03
-174.53
-207.87
-221.85
-216.03
-193.56
-159.38
-118.09
-72.67
-24.53
23.82
69.63
110.44
145.01
173.20
195.99
215.17
232.78
250.28
264.82
273.50
275.30
272.19
266.89
260.66
252.63
240.53
222.05
190.86
144.13
84.25
18.76
-44.57
-101.69
-152.49
-199.08
-243.64
-294.37
-356.32
-430.04
-510.57
-592.46
-673.49
-754.45
-837.42
-880.61
-857.41
-772.16
-659.34
-552.25
-463.67
-389.44
-319.76
-247.60
-172.15
-111.09
-70.27
-50.90
-46.88
-48.74
-48.68
-42.52
-29.20
-9.02
13.00
31.93
46.32
59.39
75.03
94.52
116.49
138.51
158.79
173.51
181.51
183.84
184.29
186.60
192.36
200.98
210.83
220.37
227.21
230.53
230.80
230.04
230.33
232.67
236.88
242.12
247.41
251.50
253.84
254.68
255.28
257.60
263.62
274.53
289.99
307.69
323.60
333.01
331.80
317.69
290.82
253.52
209.62
163.70
120.33
83.43
55.64
37.72
28.45
24.98
23.89
22.30
18.73
13.07
6.08
-1.39
-8.87
-16.30
-23.79
-31.28
-38.55
-45.18
-50.82
-55.27
-58.53
-60.77
-62.26
-63.30
-64.01
-64.21
-63.33
-60.66
-55.76
-48.83
-40.88
-33.37
-27.56
-23.88
-21.76
-20.09
-18.02
-15.46
-13.09
-11.76
-11.76
-12.55
-13.06
-12.47
-10.69
-8.46
-6.79
-6.35
-7.16
-8.60
-9.85
-10.18
-9.13
-6.50
-2.38
2.84
8.45
13.57
17.51
20.03
21.44
22.38
23.36
24.53
25.59
25.98
25.28
23.33
20.26
16.40
12.20
8.11
4.59
2.06
0.70
0.45
1.01
1.87
2.56
2.65
1.74
-0.49
-4.25
-9.50
-15.83
-22.47
-28.58
-33.47
-36.84
-38.75
-39.42
-38.98
-37.43
-34.67
-30.77
-26.00
-20.93
-16.15
-12.17
-9.29
-7.50
-6.55
-5.94
-5.05
-3.46
-1.03
1.86
4.50
6.21
6.77
6.65
6.71
7.74
9.97
12.84
15.44
17.04
17.51
17.33
17.16
17.34
17.70
17.73
17.00
15.55
13.91
12.75
12.49
13.00
13.68
13.74
12.57
10.00
6.29
2.00
-2.25
-5.99
-9.10
-11.67
-14.03
-16.52
-19.37
-22.61
-26.14
-29.85
-33.72
-37.98
-43.03
-49.37
-57.46
-67.55
-79.54
-92.97
-107.03
-120.70
-133.05
-143.37
-151.18
-156.20
-158.12
-156.49
-150.70
-140.03
-123.89
-102.08
-75.01
-43.72
-9.76
25.10
59.03
90.35
117.60
139.62
155.69
165.58
169.66
168.83
164.32
157.44
149.31
140.61
131.60
122.24
112.42
102.18
91.85
81.96
73.06
65.40
58.81
52.66
46.16
38.80
30.59
22.09
14.05
7.06
1.20
-3.88
-8.74
-13.76
-18.87
-23.67
-27.64
-30.50
-32.34
-33.54
-34.47
-35.31
-35.92
-36.16
-35.97
-35.67
-35.73
-36.58
-38.43
-41.11
-44.19
-47.17
-49.68
-51.60
-53.07
-54.34
-55.75
-57.57
-59.94
-62.81
-66.04
-69.45
-72.93
-76.57
-80.51
-84.93
-89.93
-95.44
-101.26
-107.15
-112.90
-118.47
-124.14
-130.26
-136.94
-143.85
-150.17
-155.02
-158.05
-159.87
-161.84
-165.46
-171.35
-178.64
-184.93
-186.97
-181.82
-167.78
-144.89
-114.52
-78.92
-40.35
-0.53
39.51
79.69
120.95
165.33
215.41
273.09
337.87
405.76
469.36
519.91
550.31
557.75
544.64
517.26
482.98
447.32
412.71
378.74
343.68
305.94
264.79
220.21
172.54
122.29
70.16
17.33
-34.74
-84.76
-131.90
-176.40
-219.85
-265.04
-315.12
-372.05
-434.71
-497.94
-553.20
-591.08
-604.86
-593.13
-560.20
-514.05
-462.96
-412.59
-364.98
-319.80
-276.24
-234.62
-196.27
-162.22
-131.60
-101.25
-66.80
-24.91
24.59
77.83
127.51
165.40
185.20
184.73
166.74
138.19
108.20
85.63
77.08
85.87
111.93
152.72
204.50
263.54
327.11
393.87
463.76
537.23
613.90
691.17
763.62
823.52
862.80
875.66
860.62
821.08
763.96
697.14
626.97
557.23
489.54
424.65
363.67
308.05
258.87
216.04
178.00
142.48
107.69
73.24
40.19
10.60
-13.59
-31.59
-44.02
-52.88
-60.63
-69.37
-80.11
-92.51
-105.27
-116.80
-126.00
-132.71
-137.76
-142.55
-148.42
-156.04
-165.20
-174.98
-184.36
-192.84
-200.55
-207.98
-215.34
-222.06
-226.69
-227.47
-222.87
-211.77
-193.08
-164.93
-124.81
-70.91
-4.26
69.50
140.31
196.35
228.15
232.30
212.63
178.48
140.40
106.30
79.10
57.07
36.30
13.11
-14.73
-48.33
-88.38
-135.19
-187.32
-239.94
-284.64
-311.65
-314.25
-293.04
-257.40
-222.60
-204.13
-211.84
-247.15
-304.75
-377.11
-458.90
-548.36
-645.13
-746.54
-845.20
-930.00
-990.03
-1019.12
-1018.04
-993.60
-954.80
-908.70
-858.11
-801.97
-737.88
-664.94
-585.17
-502.88
-422.80
-347.84
-278.46
-213.28
-150.59
-89.67
-31.35
22.31
69.31
108.71
141.21
168.83
194.01
218.64
243.42
267.83
290.72
311.05
328.27
342.70
355.21
367.30
380.88
398.04
419.95
445.38
470.17
486.84
487.43
465.67
419.51
351.83
268.87
177.57
83.75
-7.57
-91.84
-162.20
-211.50
-234.31
-229.39
-200.75
-156.74
-107.22
-59.89
-19.82
13.33
41.89
68.79
96.53
127.68
164.55
208.99
262.86
326.22
401.28
482.75
556.34
603.84
613.66
585.12
525.30
456.92
385.85
317.07
255.04
201.82
155.55
112.09
69.39
26.56
-15.73
-57.58
-96.68
-130.49
-158.37
-182.44
-204.66
-226.27
-248.10
-271.56
-300.96
-340.20
-391.39
-438.43
-464.36
-456.63
-413.47
-342.03
-253.49
-160.46
-80.67
-15.45
33.59
62.54
69.06
54.24
23.54
-15.65
-54.26
-82.62
-91.60
-78.16
-45.54
-2.03
49.10
107.14
170.26
235.84
296.02
345.72
381.89
403.49
411.07
392.57
344.82
274.34
194.68
119.01
56.67
10.35
-22.08
-44.65
-61.18
-72.03
-76.28
-72.18
-59.10
-36.27
-3.78
37.89
88.00
140.85
189.99
227.36
245.61
240.49
214.41
175.47
134.62
101.22
79.80
70.80
71.07
76.60
83.70
91.58
100.02
108.35
114.88
117.39
115.35
109.82
103.24
96.94
92.21
89.16
86.41
81.40
71.00
53.01
25.81
-5.77
-39.56
-73.26
-105.28
-135.45
-164.94
-195.55
-228.03
-261.81
-295.34
-329.14
-362.77
-395.40
-426.51
-455.29
-480.39
-498.70
-505.84
-497.55
-473.16
-432.37
-374.40
-298.76
-206.31
-101.11
9.66
116.21
220.44
310.74
372.69
402.73
408.45
404.61
399.85
395.83
391.27
383.06
367.01
338.42
296.73
245.14
188.44
130.55
74.09
20.18
-31.45
-82.90
-140.63
-208.27
-284.43
-364.85
-445.45
-523.72
-598.87
-671.80
-706.15
-680.38
-598.46
-487.39
-377.93
-287.29
-216.42
-156.63
-98.49
-38.02
15.79
44.52
43.87
15.96
-30.93
-83.48
-125.71
-144.44
-133.29
-98.75
-52.72
-5.32
40.13
79.47
110.67
135.62
158.31
183.06
209.82
238.00
270.16
310.47
362.67
415.39
453.11
462.43
440.32
393.22
333.49
275.01
227.80
195.26
174.62
160.99
149.46
137.25
123.45
108.69
94.99
83.64
74.25
65.59
57.42
49.96
43.65
38.64
34.83
32.58
32.07
32.91
34.36
36.55
39.46
42.24
44.29
40.71
28.28
6.58
-21.29
-49.04
-69.12
-76.20
-69.82
-54.77
-38.99
-29.02
-27.36
-31.76
-37.21
-39.57
-38.53
-37.99
-43.46
-58.58
-81.83
-107.06
-125.89
-131.31
-120.92
-97.56
-67.50
-37.28
-11.29
9.45
26.18
38.85
46.53
47.79
41.64
28.63
11.26
-6.55
-20.74
-28.64
-29.97
-26.40
-20.83
-16.11
-14.06
-15.08
-18.49
-22.98
-27.20
-30.10
-31.09
-30.23
-28.32
-26.50
-25.91
-27.21
-30.45
-35.03
-39.92
-43.85
-45.69
-44.90
-41.70
-36.93
-31.70
-26.89
-22.96
-19.93
-17.67
-16.09
-15.34
-15.44
-16.01
-16.07
-14.13
-8.76
0.70
13.59
27.84
40.43
48.45
50.30
46.41
39.34
32.73
29.95
32.68
40.19
49.49
56.40
57.05
49.18
32.89
10.45
-14.50
-37.90
-56.06
-65.93
-65.13
-52.17
-27.03
8.00
47.79
84.88
111.17
120.34
109.98
82.40
43.68
1.41
-37.71
-69.35
-91.85
-105.53
-111.68
-111.88
-107.81
-101.17
-93.74
-86.97
-81.60
-77.43
-73.41
-68.16
-60.71
-51.03
-40.25
-30.33
-23.37
-20.72
-22.41
-27.06
-32.40
-36.14
-36.73
-33.59
-26.85
-16.78
-3.39
13.38
33.19
54.77
75.78
93.26
104.53
108.10
104.10
94.27
81.30
68.02
56.54
47.72
41.26
36.13
31.21
25.62
18.80
10.43
0.44
-10.93
-22.83
-33.76
-41.96
-46.31
-47.01
-45.77
-45.00
-46.43
-50.08
-54.11
-55.77
-52.79
-44.50
-31.85
-16.83
-1.57
11.83
21.40
24.96
20.41
6.70
-15.48
-43.96
-76.42
-112.00
-151.52
-195.83
-243.08
-287.17
-318.51
-327.59
-309.22
-264.98
-202.70
-132.48
-62.63
3.08
65.07
125.62
186.34
247.34
308.11
368.78
429.78
490.80
548.95
597.90
629.21
635.29
613.01
565.45
500.95
429.64
360.22
298.05
244.93
200.38
163.20
132.24
106.00
81.76
54.71
20.67
-21.05
-65.81
-104.58
-126.77
-124.19
-93.95
-39.12
30.56
104.38
174.14
234.48
280.98
308.98
314.64
297.12
260.13
206.58
142.39
75.93
15.43
-34.63
-74.25
-105.92
-132.01
-153.76
-179.16
-213.87
-257.49
-304.40
-349.02
-389.08
-424.91
-457.54
-487.60
-525.10
-577.29
-643.63
-716.93
-790.17
-860.52
-928.52
-995.88
-1001.60
-912.87
-744.63
-547.53
-364.26
-208.81
-76.53
40.74
146.74
239.92
306.89
339.03
339.72
322.71
302.67
287.95
280.44
278.86
281.76
281.74
275.20
264.78
256.44
254.94
259.63
266.45
271.87
274.67
271.43
261.64
248.64
238.28
234.99
239.45
249.07
259.63
266.32
263.26
247.64
221.45
190.42
160.45
134.42
111.28
89.20
65.31
36.50
0.96
-41.79
-91.56
-147.69
-208.14
-268.18
-320.46
-357.48
-374.25
-370.53
-350.50
-320.11
-283.73
-242.57
-195.77
-143.41
-89.47
-41.64
-8.64
3.78
-4.57
-28.90
-62.46
-99.78
-137.84
-174.97
-208.38
-232.76
-241.34
-228.95
-195.10
-144.90
-87.28
-31.44
16.15
53.21
80.98
102.17
119.13
133.29
145.64
157.71
172.02
191.36
217.31
248.94
281.60
307.30
316.92
303.66
265.91
208.41
140.38
71.94
10.99
-39.53
-81.44
-119.07
-156.51
-195.78
-236.85
-278.57
-319.17
-354.40
-378.25
-383.97
-366.45
-324.44
-261.57
-186.00
-108.40
-38.98
17.24
59.39
89.08
108.37
118.91
122.74
122.37
120.50
119.11
122.12
132.87
153.10
182.95
221.20
267.84
324.07
392.03
454.58
494.01
498.49
467.85
409.79
331.05
238.15
139.25
44.81
-35.13
-92.10
-124.07
-135.99
-136.42
-135.80
-139.54
-149.71
-165.23
-183.38
-198.37
-204.12
-196.27
-172.95
-138.40
-98.02
-57.67
-21.55
8.85
36.49
66.72
95.02
129.05
163.80
194.07
214.54
221.60
214.16
193.87
163.45
125.18
81.86
34.30
-13.96
-57.47
-90.08
-107.52
-109.33
-99.68
-85.74
-73.45
-67.34
-66.61
-67.18
-63.96
-53.65
-35.90
-12.90
12.71
40.50
71.30
108.01
153.26
207.52
268.14
329.75
385.35
427.94
452.33
455.37
437.15
400.45
349.77
290.09
225.61
159.12
92.40
27.21
-34.70
-90.99
-139.87
-181.08
-216.27
-248.76
-282.68
-321.99
-369.57
-426.25
-489.80
-554.70
-613.00
-656.47
-679.45
-680.87
-664.49
-636.92
-604.82
-572.41
-540.94
-509.77
-478.27
-447.07
-417.89
-392.41
-370.82
-351.56
-331.97
-309.65
-283.59
-254.40
-224.05
-194.73
-167.84
-143.42
-120.21
-96.36
-70.26
-41.32
-10.21
21.39
51.64
79.18
103.77
126.19
147.89
170.37
194.82
221.90
251.67
283.47
315.75
345.99
370.97
387.46
393.13
387.41
371.65
348.88
322.75
296.55
272.43
251.25
233.03
217.67
205.63
197.94
195.86
199.96
209.52
222.50
236.23
248.62
259.15
268.72
278.77
290.03
301.84
312.53
320.68
326.20
330.70
336.78
346.70
361.46
380.66
403.09
427.42
452.47
476.69
497.81
512.45
517.34
510.67
493.03
467.32
437.68
408.13
381.28
358.11
338.02
319.93
303.00
286.83
271.24
255.70
239.20
220.31
197.44
168.54
132.51
89.70
42.10
-7.24
-54.96
-98.25
-135.43
-166.48
-194.69
-223.77
-256.39
-293.39
-334.27
-378.37
-425.19
-474.66
-527.08
-586.52
-655.32
-732.54
-814.23
-895.63
-972.71
-1041.80
-1098.44
-1137.09
-1158.46
-1163.49
-1152.95
-1127.55
-1089.36
-1042.32
-990.48
-936.64
-882.13
-835.53
-802.34
-781.97
-766.93
-746.63
-712.24
-658.79
-585.18
-445.63
-225.02
55.90
346.38
594.47
770.64
870.35
905.71
896.68
864.86
820.07
768.10
713.13
659.57
611.78
572.51
542.87
522.29
508.67
491.78
463.81
421.70
369.10
313.53
261.62
216.96
179.45
146.74
111.10
66.61
15.30
-38.47
-88.62
-130.60
-162.28
-187.75
-206.51
-220.69
-232.34
-242.85
-253.17
-263.18
-271.78
-276.29
-273.28
-259.74
-236.90
-209.10
-182.03
-160.37
-145.37
-136.58
-130.98
-124.76
-114.62
-99.83
-81.24
-60.07
-37.31
-13.57
10.66
34.77
57.83
78.99
97.41
112.88
126.00
137.63
148.64
159.60
170.83
182.33
194.02
205.78
217.93
231.30
247.00
265.78
287.18
309.05
327.63
338.59
338.57
326.59
304.60
276.65
247.33
220.12
196.56
176.42
158.55
142.00
126.51
112.49
100.37
90.25
81.67
73.96
66.61
59.53
53.16
48.30
45.75
45.80
48.02
51.44
54.92
57.66
59.47
60.78
62.49
65.71
71.24
79.50
90.41
103.49
117.87
132.36
145.55
156.31
164.20
169.41
172.86
176.06
180.66
187.62
196.62
205.42
210.94
210.95
204.37
192.05
176.64
161.20
147.44
134.71
119.67
98.86
71.33
37.71
-0.10
-39.47
-78.56
-117.11
-156.21
-198.53
-245.70
-296.45
-349.42
-402.71
-452.61
-493.77
-520.13
-526.77
-513.23
-482.20
-437.14
-384.33
-330.06
-277.41
-225.91
-172.77
-106.46
-25.49
51.90
115.93
162.53
187.79
191.38
177.02
151.10
120.32
88.03
55.88
26.15
-0.94
-25.79
-48.23
-68.65
-89.11
-113.40
-146.35
-189.65
-238.48
-284.92
-319.44
-333.87
-324.96
-295.93
-255.13
-213.03
-177.86
-152.01
-134.61
-121.92
-109.81
-95.99
-80.99
-67.18
-56.89
-51.02
-46.85
-40.97
-28.41
-5.36
28.98
71.22
115.03
154.25
184.24
205.15
219.16
231.67
248.56
274.26
310.54
357.33
414.16
478.81
548.93
602.29
615.29
575.52
492.36
390.25
293.20
222.20
173.11
138.86
112.88
93.02
79.56
72.16
68.76
65.11
56.88
40.15
15.32
-15.92
-49.84
-82.97
-114.20
-146.58
-186.11
-239.35
-311.06
-398.88
-494.25
-582.46
-647.33
-676.62
-666.93
-623.09
-556.79
-481.86
-408.14
-340.45
-278.20
-217.52
-153.73
-84.45
-7.78
73.63
153.16
222.30
272.64
298.52
298.76
276.79
238.66
196.43
160.72
138.92
134.74
146.35
166.12
182.12
182.42
158.19
112.92
54.12
-11.03
-77.26
-144.01
-214.12
-291.84
-363.50
-439.75
-505.84
-548.96
-564.45
-553.31
-521.76
-477.33
-427.25
-375.47
-322.65
-261.62
-188.43
-107.25
-23.11
60.86
146.11
234.48
315.37
366.92
372.32
351.28
317.19
283.44
253.18
236.26
238.20
256.68
283.14
311.19
336.21
352.56
357.78
349.38
324.82
280.30
214.94
134.30
51.23
-20.99
-75.76
-110.17
-123.57
-115.14
-85.00
-34.52
32.48
109.44
185.89
247.45
282.52
286.33
262.95
222.60
178.73
142.23
118.51
105.62
95.72
81.43
59.70
32.52
2.92
-27.44
-62.47
-105.60
-155.70
-204.33
-236.98
-239.62
-206.38
-144.42
-70.17
-7.43
26.56
25.72
-3.94
-48.53
-92.49
-124.15
-138.18
-132.53
-112.41
-80.91
-38.83
15.43
84.36
169.28
268.23
360.86
452.87
530.24
582.13
601.71
588.08
546.79
487.53
421.02
355.47
296.41
240.09
181.77
117.96
49.25
-18.86
-79.77
-128.93
-165.71
-191.48
-212.31
-233.04
-255.55
-278.09
-295.31
-303.61
-301.45
-289.76
-270.33
-249.28
-235.50
-234.92
-246.83
-261.20
-268.86
-264.40
-249.07
-228.97
-213.88
-216.03
-241.15
-286.04
-336.98
-385.35
-426.79
-460.93
-489.06
-514.97
-550.21
-603.51
-674.80
-748.87
-813.08
-858.58
-884.57
-896.12
-863.00
-773.61
-637.33
-511.67
-398.34
-289.37
-174.75
-63.05
33.90
108.84
156.74
181.41
193.32
209.39
234.62
266.56
299.07
328.65
354.89
374.55
386.53
392.31
398.79
406.13
411.39
410.79
403.59
391.61
375.15
355.72
336.02
321.53
312.83
308.01
304.13
299.91
295.67
291.39
288.03
287.52
293.32
306.30
325.19
346.80
367.31
383.03
390.91
390.02
381.44
367.85
351.11
331.95
310.40
286.90
262.82
240.22
221.23
207.03
197.46
191.34
187.07
182.97
177.37
168.83
156.80
142.96
131.88
130.84
147.84
188.03
250.29
325.91
400.18
457.41
486.44
483.62
453.23
404.76
348.20
290.27
233.09
175.07
114.73
53.24
-6.61
-61.62
-109.63
-151.10
-188.81
-226.42
-267.50
-313.25
-361.91
-411.85
-461.52
-508.35
-548.21
-575.37
-583.66
-569.75
-533.09
-475.89
-404.93
-328.30
-251.77
-177.30
-103.94
-23.85
60.87
134.76
189.39
219.15
219.92
192.12
141.07
75.66
6.25
-58.54
-111.03
-144.37
-155.69
-145.27
-115.78
-72.20
-21.33
29.32
72.52
104.53
126.50
141.61
154.03
167.14
181.74
195.59
204.61
204.51
193.72
174.49
150.45
125.41
102.23
82.26
65.61
51.89
40.38
30.62
22.53
15.64
9.28
3.06
-3.06
-8.75
-13.58
-17.40
-20.35
-22.85
-25.65
-29.46
-34.62
-41.01
-48.29
-56.10
-64.42
-73.65
-84.43
-97.36
-112.62
-129.90
-148.47
-167.50
-186.40
-205.00
-223.61
-242.94
-264.02
-287.93
-315.27
-345.45
-376.14
-403.40
-422.65
-430.17
-424.51
-407.06
-381.45
-352.05
-322.41
-294.33
-268.05
-243.05
-218.94
-195.85
-174.22
-154.34
-135.99
-118.47
-101.06
-83.38
-65.59
-48.36
-32.44
-18.39
-6.31
4.13
13.46
22.16
30.42
38.09
44.79
50.20
54.17
56.91
58.85
60.47
62.10
63.74
65.07
65.65
65.13
63.43
60.80
57.70
54.60
51.76
49.13
46.46
43.46
40.01
36.20
32.21
28.27
24.43
20.57
16.50
12.13
7.65
3.51
0.30
-1.53
-1.78
-0.67
1.33
3.68
5.98
8.05
9.92
11.73
13.61
15.65
17.89
20.29
22.78
25.19
27.31
28.88
29.76
29.94
29.57
28.95
28.40
28.20
28.52
29.34
30.50
31.66
32.40
32.38
31.43
29.66
27.41
25.08
23.03
21.44
20.31
19.51
18.92
18.43
18.06
17.93
18.22
19.06
20.50
22.43
24.58
26.62
28.20
28.99
28.77
27.43
24.99
21.59
17.49
13.02
8.55
4.43
1.04
-1.32
-2.50
-2.54
-1.83
-0.92
-0.37
-0.57
-1.59
-3.27
-5.41
-7.88
-10.64
-13.66
-16.70
-19.27
-20.79
-20.86
-19.44
-16.94
-14.03
-11.27
-9.02
-7.22
-5.60
-3.85
-1.78
0.51
2.74
4.50
5.41
5.27
4.17
2.46
0.74
-0.29
-0.07
1.59
4.43
7.72
10.55
12.04
11.67
9.40
5.61
1.03
-3.54
-7.30
-9.54
-9.66
-7.24
-2.08
5.86
16.52
29.92
46.16
65.25
86.62
108.75
129.15
144.91
153.69
154.57
148.54
137.88
125.20
112.25
99.46
86.18
71.62
55.75
39.59
24.91
13.29
5.45
1.11
-0.53
-0.13
2.19
6.62
13.08
20.62
27.25
30.50
28.34
20.11
6.90
-8.78
-23.95
-36.36
-45.39
-52.23
-59.15
-68.31
-80.43
-94.02
-105.65
-111.04
-106.70
-91.26
-66.02
-34.61
-1.95
26.92
47.96
58.75
58.78
49.25
32.61
11.91
-10.01
-31.02
-50.03
-66.74
-81.25
-93.63
-103.70
-111.12
-115.52
-116.72
-114.75
-109.81
-102.33
-93.01
-82.91
-73.34
-65.56
-60.28
-57.42
-56.15
-55.21
-53.49
-50.37
-45.86
-40.51
-35.16
-30.83
-28.36
-28.07
-29.42
-30.84
-30.09
-25.18
-15.16
-0.78
15.79
31.73
44.59
52.98
56.66
56.17
52.29
45.79
37.38
27.80
17.90
8.41
-0.26
-8.16
-15.72
-23.53
-32.00
-41.19
-50.70
-59.72
-67.34
-72.70
-75.27
-74.86
-71.68
-66.07
-58.41
-49.01
-38.06
-25.75
-12.29
1.95
16.50
30.80
44.29
56.55
67.28
76.43
84.12
90.58
96.13
101.06
105.55
109.57
112.81
114.61
114.09
110.50
103.54
93.68
82.20
70.82
61.25
54.64
51.23
50.41
51.04
51.97
52.49
52.82
54.19
58.59
68.31
85.15
109.57
140.14
173.39
204.37
227.83
239.57
237.59
222.62
197.63
166.92
134.89
105.13
79.99
60.49
46.47
36.70
29.11
21.19
10.68
-3.62
-21.40
-40.92
-59.76
-75.84
-88.23
-97.10
-103.34
-107.77
-110.68
-112.00
-111.75
-110.38
-108.82
-108.03
-108.34
-109.20
-109.42
-107.82
-103.96
-98.57
-93.30
-90.04
-90.04
-93.42
-99.09
-105.30
-110.43
-113.75
-115.79
-118.07
-122.55
-130.82
-143.44
-159.67
-177.49
-193.96
-205.88
-210.51
-206.26
-193.31
-173.62
-150.50
-127.55
-107.39
-90.67
-75.82
-59.70
-39.11
-12.46
19.14
51.92
80.60
100.14
107.51
102.59
88.10
68.50
48.72
32.79
23.04
19.73
21.37
25.26
28.42
28.51
24.43
16.56
6.42
-3.91
-12.39
-17.23
-16.97
-10.45
2.94
22.88
47.88
75.40
102.51
126.86
147.37
164.37
178.82
191.35
201.39
207.31
207.38
201.15
190.28
178.33
169.21
165.28
166.00
168.28
168.18
163.35
154.53
145.37
140.46
142.89
152.49
165.96
178.31
185.00
183.25
172.13
151.82
122.92
86.49
44.69
1.34
-38.48
-69.84
-89.80
-98.74
-100.12
-98.97
-99.66
-104.25
-112.00
-120.25
-125.97
-127.16
-123.57
-116.45
-107.95
-100.35
-95.57
-94.74
-98.00
-104.48
-112.28
-118.95
-122.20
-120.76
-115.02
-107.06
-99.90
-96.41
-98.08
-104.39
-112.88
-120.02
-122.40
-117.84
-106.10
-89.00
-69.99
-53.17
-41.98
-38.09
-40.89
-47.65
-54.74
-59.01
-59.18
-56.32
-53.26
-53.27
-58.94
-71.45
-90.59
-115.30
-143.82
-173.51
-200.46
-219.60
-227.04
-220.89
-202.82
-177.48
-150.19
-124.37
-100.02
-74.60
-45.14
-11.70
22.75
53.16
74.79
85.14
84.57
75.44
61.07
45.71
31.79
22.19
18.62
20.65
25.32
28.15
25.02
14.26
-0.23
-16.40
-29.03
-33.97
-29.27
-15.07
7.18
35.47
67.56
105.33
140.89
171.04
193.42
207.27
213.74
215.65
216.36
218.44
229.95
242.49
254.30
263.77
270.39
275.11
280.32
289.42
306.35
343.97
394.12
455.56
523.23
588.90
643.69
681.24
700.20
645.93
599.24
556.13
520.12
490.41
463.04
433.43
398.52
357.46
311.02
269.77
224.52
175.68
123.61
69.06
13.40
-41.42
-93.46
-141.27
-177.16
-209.61
-240.38
-271.87
-306.42
-345.63
-390.15
-439.97
-494.93
-550.18
-609.05
-667.47
-718.53
-753.76
-766.20
-753.57
-719.68
-673.05
-621.28
-574.00
-534.09
-500.83
-472.09
-446.27
-422.79
-401.25
-380.42
-357.34
-330.72
-299.53
-264.33
-226.52
-187.28
-147.01
-105.49
-62.57
-18.87
24.13
64.61
100.90
131.97
157.58
178.20
195.17
210.88
228.54
251.30
280.86
316.03
352.40
383.31
402.19
405.10
392.13
367.04
335.37
301.95
269.24
237.11
203.96
168.30
130.04
90.70
52.80
18.89
-9.29
-31.18
-47.31
-58.85
-67.15
-73.15
-77.39
-80.04
-81.16
-80.66
-78.27
-73.45
-65.59
-54.47
-40.84
-26.42
-13.46
-3.76
2.10
4.82
5.83
6.27
6.41
5.57
2.75
-2.59
-10.11
-18.68
-27.02
-34.34
-40.64
-46.37
-51.94
-57.27
-61.69
-64.31
-64.61
-62.89
-60.38
-58.79
-59.65
-63.59
-70.04
-77.46
-84.11
-88.77
-91.26
-92.23
-92.56
-92.81
-93.01
-92.92
-92.59
-92.70
-94.29
-98.18
-104.56
-112.96
-122.82
-134.32
-148.30
-165.57
-185.48
-204.95
-218.61
-220.29
-205.40
-172.87
-126.19
-72.45
-20.42
21.46
46.71
51.41
34.41
-2.57
-54.74
-114.32
-171.18
-214.70
-236.25
-231.44
-201.39
-152.19
-92.84
-32.50
21.94
67.27
103.75
134.09
161.98
190.61
221.67
254.87
288.09
317.77
339.81
350.72
348.75
335.15
314.54
294.62
284.25
290.53
315.94
356.99
405.27
450.61
485.09
505.58
514.08
515.60
515.14
515.51
516.68
516.90
514.21
507.43
496.08
479.89
458.18
430.16
395.37
354.38
308.83
261.09
213.91
169.82
130.91
98.59
73.69
56.35
45.93
40.93
39.00
37.39
33.48
25.41
12.32
-5.70
-28.06
-54.26
-84.08
-117.68
-155.48
-198.15
-246.50
-301.05
-360.99
-422.90
-480.18
-524.05
-546.36
-543.25
-517.46
-477.95
-436.62
-403.67
-383.96
-376.27
-375.30
-375.17
-372.16
-365.38
-355.67
-343.81
-329.55
-312.05
-290.84
-266.70
-241.73
-218.41
-198.46
-182.06
-167.89
-153.74
-137.60
-118.51
-96.85
-74.06
-51.97
-32.02
-14.82
-0.17
12.66
24.27
34.76
43.61
49.90
52.86
52.38
49.16
44.53
39.98
36.52
34.45
33.41
32.61
31.31
29.12
26.06
22.42
18.68
15.29
12.63
10.91
10.11
10.03
10.33
10.75
11.25
12.01
13.34
15.39
18.02
20.70
22.81
23.83
23.70
22.80
21.81
21.31
21.53
22.30
23.16
23.69
23.70
23.25
22.56
21.75
20.78
19.48
17.73
15.54
13.12
10.75
8.62
6.66
4.67
2.42
-0.05
-2.46
-4.34
-5.31
-5.28
-4.44
-3.26
-2.15
-1.42
-1.20
-1.49
-2.29
-3.60
-5.29
-7.04
-8.30
-8.48
-7.21
-4.53
-0.94
2.87
6.25
8.93
11.07
13.17
15.83
19.43
23.98
29.01
33.61
36.73
37.34
34.83
29.10
20.70
10.60
-0.06
-10.28
-19.41
-27.18
-33.54
-38.45
-41.83
-43.52
-43.47
-41.94
-39.45
-36.62
-33.98
-31.74
-29.83
-28.00
-26.05
-23.91
-21.75
-19.71
-17.88
-16.28
-14.84
-13.53
-12.37
-11.35
-10.40
-9.42
-8.36
-7.29
-6.41
-5.88
-5.70
-5.76
-5.80
-5.61
-5.14
-4.49
-3.79
-3.17
-2.67
-2.29
-2.01
-1.88
-1.91
-2.04
-2.14
-1.97
-1.33
-0.10
1.65
3.74
5.87
7.78
9.31
10.41
11.24
11.99
12.85
13.88
14.99
16.02
16.84
17.40
17.74
17.86
17.76
17.37
16.71
15.93
15.28
14.99
15.10
15.48
15.79
15.76
15.25
14.41
13.49
12.76
12.32
12.13
12.06
11.92
11.61
11.03
10.16
9.05
7.78
6.44
5.18
4.01
2.94
1.89
0.82
-0.27
-1.28
-2.06
-2.50
-2.63
-2.63
-2.77
-3.25
-4.13
-5.33
-6.57
-7.60
-8.22
-8.39
-8.22
-7.88
-7.56
-7.37
-7.41
-7.69
-8.21
-8.82
-9.34
-9.50
-9.07
-7.95
-6.21
-4.07
-1.85
0.17
1.81
3.06
4.02
4.83
5.65
6.58
7.63
8.76
9.84
10.73
11.38
11.78
12.01
12.16
12.31
12.47
12.58
12.55
12.39
12.15
11.84
11.53
11.11
10.47
9.55
8.33
6.97
5.68
4.62
3.82
3.20
2.64
2.09
1.62
1.42
1.63
2.26
3.15
4.00
4.54
4.66
4.40
3.93
3.39
2.80
2.13
1.28
0.22
-1.01
-2.26
-3.41
-4.30
-4.93
-5.40
-5.92
-6.73
-8.00
-9.72
-11.74
-13.74
-15.36
-16.27
-16.28
-15.39
-13.75
-11.63
-9.29
-6.97
-4.79
-2.77
-0.84
1.06
2.96
4.88
6.80
8.70
10.45
11.90
12.87
13.24
13.08
12.66
12.31
12.27
12.57
13.00
13.32
13.38
13.26
13.10
12.99
12.86
12.47
11.66
10.55
9.46
8.84
8.93
9.66
10.65
11.33
11.30
10.44
8.99
7.36
5.98
5.08
4.62
4.43
4.28
4.01
3.60
3.10
2.57
2.05
1.53
0.98
0.38
-0.25
-0.93
-1.74
-2.70
-3.81
-4.93
-5.96
-6.83
-7.56
-8.30
-9.16
-10.20
-11.34
-12.52
-13.66
-14.73
-15.58
-15.97
-15.59
-14.20
-11.87
-8.91
-5.88
-3.28
-1.36
-0.07
0.88
1.82
2.98
4.42
6.07
7.75
9.29
10.57
11.50
12.02
12.20
12.09
11.78
11.39
10.98
10.66
10.47
10.50
10.71
11.03
11.35
11.50
11.37
10.91
10.16
9.26
8.45
7.90
7.69
7.78
7.95
8.06
7.99
7.78
7.52
7.27
6.98
6.57
6.02
5.36
4.78
4.42
4.32
4.35
4.26
3.83
3.01
1.94
0.78
-0.27
-1.22
-2.19
-3.32
-4.74
-6.43
-8.27
-10.09
-11.79
-13.28
-14.58
-15.74
-16.80
-17.73
-18.47
-18.86
-18.79
-18.23
-17.20
-15.86
-14.37
-12.92
-11.62
-10.51
-9.56
-8.67
-7.74
-6.61
-5.23
-3.60
-1.79
0.08
1.95
3.85
5.84
7.95
10.11
12.04
13.49
14.22
14.21
13.62
12.78
12.00
11.44
11.12
10.88
10.55
10.06
9.42
8.76
8.20
7.83
7.58
7.40
7.21
7.02
6.89
6.84
6.85
6.78
6.51
6.00
5.30
4.53
3.88
3.44
3.19
3.07
2.97
2.76
2.39
1.85
1.13
0.23
-0.86
-2.15
-3.58
-5.02
-6.34
-7.43
-8.28
-9.09
-10.08
-11.43
-13.16
-15.03
-16.70
-17.77
-18.01
-17.35
-15.88
-13.81
-11.44
-9.13
-7.17
-5.71
-4.68
-3.80
-2.73
-1.23
0.67
2.70
4.51
5.82
6.53
6.74
6.63
6.32
5.93
5.58
5.37
5.42
5.76
6.32
6.93
7.40
7.58
7.50
7.26
7.00
6.81
6.74
6.75
6.83
6.95
7.10
7.29
7.48
7.66
7.77
7.79
7.70
7.51
7.21
6.81
6.33
5.78
5.16
4.48
3.75
2.98
2.15
1.25
0.27
-0.79
-1.93
-3.15
-4.50
-6.05
-7.82
-9.73
-11.57
-13.12
-14.27
-15.12
-15.92
-16.92
-18.18
-19.48
-20.34
-20.30
-19.14
-17.01
-14.39
-11.82
-9.73
-8.22
-7.13
-6.15
-5.00
-3.61
-2.07
-0.57
0.71
1.74
2.61
3.43
4.27
5.13
5.94
6.65
7.28
7.88
8.52
9.23
9.97
10.61
11.11
11.40
11.56
11.66
11.78
11.96
12.20
12.40
12.42
12.11
11.33
10.11
8.58
7.00
5.58
4.45
3.65
3.11
2.75
2.57
2.57
2.76
3.10
3.50
3.82
3.94
3.79
3.36
2.74
2.01
1.27
0.49
-0.39
-1.50
-2.86
-4.36
-5.75
-6.80
-7.40
-7.67
-7.91
-8.45
-9.47
-10.94
-12.70
-14.45
-15.88
-16.73
-16.82
-16.08
-14.64
-12.72
-10.61
-8.53
-6.58
-4.76
-3.07
-1.51
-0.16
0.92
1.77
2.51
3.28
4.09
4.87
5.43
5.72
5.81
5.92
6.26
6.91
7.73
8.45
8.79
8.61
8.00
7.23
6.59
6.29
6.34
6.58
6.84
7.02
7.12
7.29
7.69
8.39
9.28
10.05
10.40
10.19
9.48
8.49
7.46
6.52
5.57
4.52
3.26
1.90
0.64
-0.27
-0.75
-0.85
-0.81
-0.87
-1.23
-1.96
-2.99
-4.15
-5.25
-6.10
-6.67
-7.03
-7.31
-7.67
-8.17
-8.78
-9.45
-10.09
-10.71
-11.26
-11.64
-11.71
-11.27
-10.21
-8.64
-6.85
-5.19
-3.94
-3.11
-2.46
-1.65
-0.38
1.41
3.53
5.58
7.22
8.29
8.90
9.28
9.66
10.14
10.64
11.06
11.27
11.31
11.25
11.20
11.24
11.40
11.64
11.86
11.92
11.70
11.21
10.52
9.81
9.24
8.83
8.45
7.82
6.75
5.24
3.53
1.94
0.78
0.16
0.00
0.06
0.04
-0.22
-0.75
-1.45
-2.13
-2.60
-2.76
-2.60
-2.28
-2.03
-2.06
-2.50
-3.35
-4.46
-5.64
-6.79
-7.87
-8.95
-10.11
-11.38
-12.76
-14.23
-15.72
-17.12
-18.30
-19.09
-19.30
-18.82
-17.64
-15.89
-13.81
-11.62
-9.51
-7.58
-5.80
-4.10
-2.33
-0.38
1.80
4.17
6.55
8.66
10.22
11.10
11.33
11.07
10.51
9.86
9.25
8.74
8.41
8.32
8.51
8.94
9.43
9.72
9.58
8.96
7.99
7.01
6.42
6.45
7.16
8.32
9.60
10.68
11.30
11.37
10.89
9.99
8.82
7.57
6.41
5.49
4.87
4.54
4.46
4.56
4.76
4.96
5.04
4.90
4.54
3.99
3.32
2.59
1.77
0.80
-0.38
-1.77
-3.26
-4.74
-6.07
-7.18
-8.06
-8.77
-9.39
-10.06
-10.96
-12.23
-13.95
-16.03
-18.17
-19.98
-21.01
-20.97
-19.79
-17.65
-14.86
-11.85
-9.01
-6.59
-4.74
-3.41
-2.47
-1.73
-0.94
0.07
1.40
3.01
4.74
6.36
7.73
8.79
9.66
10.49
11.41
12.41
13.36
14.11
14.56
14.75
14.84
14.92
15.04
15.08
14.88
14.33
13.40
12.14
10.65
9.08
7.52
6.05
4.71
3.56
2.59
1.83
1.23
0.75
0.32
-0.14
-0.63
-1.09
-1.36
-1.26
-0.70
0.22
1.26
2.12
2.58
2.59
2.28
1.85
1.46
1.20
1.02
0.83
0.52
0.04
-0.59
-1.28
-1.97
-2.64
-3.34
-4.23
-5.45
-7.05
-8.96
-10.92
-12.62
-13.81
-14.32
-14.14
-13.29
-11.90
-10.21
-8.49
-7.04
-6.09
-5.63
-5.45
-5.27
-4.80
-3.94
-2.75
-1.40
-0.01
1.34
2.63
3.82
4.75
5.26
5.32
5.06
4.72
4.60
4.78
5.22
5.70
5.93
5.73
5.12
4.31
3.60
3.31
3.58
4.34
5.34
6.27
6.92
7.25
7.35
7.37
7.45
7.54
7.56
7.39
7.00
6.51
6.08
5.80
5.64
5.47
5.08
4.34
3.28
2.09
1.03
0.32
-0.01
-0.11
-0.27
-0.74
-1.63
-2.88
-4.30
-5.69
-6.88
-7.78
-8.43
-8.88
-9.25
-9.61
-10.05
-10.64
-11.46
-12.51
-13.66
-14.69
-15.26
-15.10
-14.08
-12.33
-10.17
-8.07
-6.35
-5.15
-4.35
-3.67
-2.82
-1.62
-0.08
1.72
3.64
5.53
7.23
8.59
9.47
9.82
9.72
9.36
8.94
8.64
8.52
8.54
8.62
8.71
8.76
8.70
8.49
8.10
7.58
7.08
6.76
6.72
6.94
7.24
7.45
7.45
7.29
7.12
7.06
7.15
7.27
7.26
6.99
6.46
5.81
5.17
4.67
4.31
4.07
3.90
3.77
3.69
3.68
3.71
3.66
3.38
2.74
1.68
0.28
-1.31
-2.86
-4.25
-5.45
-6.54
-7.67
-8.90
-10.20
-11.45
-12.52
-13.34
-13.97
-14.49
-15.01
-15.56
-16.09
-16.42
-16.35
-15.75
-14.65
-13.25
-11.86
-10.66
-9.70
-8.78
-7.59
-5.87
-3.56
-0.85
1.92
4.39
6.30
7.52
8.11
8.21
8.06
7.91
7.98
8.35
8.98
9.77
10.63
11.53
12.48
13.41
14.20
14.69
14.75
14.36
13.69
12.95
12.32
11.86
11.51
11.17
10.79
10.41
10.07
9.80
9.51
9.11
8.52
7.69
6.70
5.64
4.61
3.65
2.70
1.65
0.42
-0.96
-2.33
-3.47
-4.14
-4.27
-3.87
-3.12
-2.23
-1.35
-0.56
0.06
0.54
0.87
1.05
1.06
0.89
0.46
-0.31
-1.38
-2.70
-4.04
-5.23
-6.13
-6.78
-7.23
-7.51
-7.59
-7.34
-6.73
-5.78
-4.66
-3.56
-2.61
-1.81
-1.11
-0.45
0.16
0.60
0.77
0.62
0.25
-0.13
-0.30
-0.14
0.36
1.12
1.99
2.85
3.64
4.32
4.91
5.43
5.89
6.28
6.57
6.71
6.65
6.38
5.94
5.49
5.16
5.09
5.35
5.87
6.55
7.23
7.82
8.25
8.49
8.46
8.08
7.20
5.75
3.80
1.57
-0.58
-2.31
-3.41
-3.92
-4.06
-4.13
-4.42
-5.10
-6.17
-7.49
-8.80
-9.84
-10.38
-10.26
-9.51
-8.25
-6.68
-5.02
-3.42
-1.99
-0.76
0.29
1.12
1.68
1.84
1.47
0.44
-1.24
-3.37
-5.64
-7.66
-9.13
-9.92
-10.07
-9.84
-9.55
-9.52
-10.01
-11.15
-12.90
-15.10
-17.44
-19.61
-21.31
-22.38
-22.73
-22.43
-21.58
-20.36
-19.00
-17.70
-16.64
-15.86
-15.36
-15.06
-14.90
-14.81
-14.68
-14.41
-13.93
-13.23
-12.51
-12.02
-12.02
-12.54
-13.42
-14.32
-14.97
-15.15
-14.80
-13.85
-12.29
-10.15
-7.58
-4.90
-2.54
-0.85
0.10
0.44
0.53
0.74
1.21
1.90
2.60
3.13
3.40
3.48
3.58
3.95
4.85
6.38
8.42
10.73
12.96
14.90
16.45
17.65
18.60
19.36
19.91
20.24
20.33
20.25
20.11
20.03
20.01
19.94
19.64
18.92
17.63
15.78
13.41
10.70
7.80
4.87
1.99
-0.81
-3.51
-6.07
-8.41
-10.41
-12.07
-13.48
-14.81
-16.24
-17.80
-19.30
-20.46
-20.99
-20.77
-19.90
-18.62
-17.19
-15.80
-14.55
-13.41
-12.34
-11.28
-10.20
-9.13
-8.06
-6.99
-5.89
-4.70
-3.34
-1.75
0.04
1.92
3.70
5.22
6.41
7.32
8.09
8.86
9.68
10.51
11.28
11.88
12.29
12.56
12.76
12.89
12.82
12.39
11.46
10.06
8.41
6.82
5.58
4.81
4.38
4.00
3.45
2.60
1.53
0.44
-0.50
-1.22
-1.76
-2.21
-2.68
-3.25
-3.91
-4.63
-5.34
-5.95
-6.43
-6.86
-7.36
-8.05
-9.01
-10.27
-11.74
-13.36
-15.01
-16.49
-17.53
-17.85
-17.23
-15.65
-13.37
-10.81
-8.38
-6.36
-4.72
-3.35
-2.02
-0.59
1.02
2.75
4.47
6.07
7.43
8.47
9.18
9.65
9.97
10.28
10.68
11.21
11.83
12.46
12.95
13.15
12.93
12.26
11.20
9.93
8.64
7.55
6.74
6.27
6.08
6.07
6.07
5.90
5.42
4.58
3.50
2.38
1.47
0.96
0.91
1.24
1.76
2.30
2.79
3.24
3.67
4.10
4.40
4.46
4.16
3.51
2.66
1.79
1.10
0.62
0.15
-0.58
-1.80
-3.54
-5.53
-7.34
-8.55
-8.97
-8.74
-8.28
-8.02
-8.30
-9.16
-10.42
-11.72
-12.73
-13.21
-13.08
-12.38
-11.29
-10.05
-8.88
-7.91
-7.16
-6.58
-6.05
-5.50
-4.85
-3.99
-2.81
-1.20
0.82
3.03
5.07
6.60
7.39
7.56
7.38
7.29
7.58
8.39
9.61
10.97
12.20
13.00
13.28
13.02
12.37
11.49
10.58
9.75
9.08
8.66
8.52
8.68
9.05
9.47
9.65
9.40
8.66
7.52
6.25
5.12
4.34
3.91
3.76
3.65
3.40
2.91
2.21
1.43
0.75
0.26
-0.08
-0.37
-0.76
-1.32
-1.99
-2.66
-3.19
-3.56
-3.83
-4.09
-4.38
-4.73
-5.10
-5.49
-5.95
-6.58
-7.48
-8.70
-10.19
-11.78
-13.24
-14.29
-14.65
-14.24
-13.10
-11.54
-9.94
-8.66
-7.85
-7.38
-6.89
-6.03
-4.62
-2.72
-0.65
1.23
2.66
3.62
4.24
4.70
5.17
5.66
6.18
6.71
7.28
8.00
8.89
9.85
10.68
11.11
10.99
10.35
9.39
8.39
7.56
6.91
6.37
5.78
5.04
4.18
3.38
2.79
2.55
2.66
3.01
3.44
3.78
3.99
4.05
4.09
4.21
4.36
4.37
4.02
3.20
2.03
0.86
0.09
-0.04
0.38
1.00
1.38
1.23
0.54
-0.47
-1.53
-2.42
-3.08
-3.55
-3.86
-4.03
-4.08
-4.07
-4.12
-4.37
-4.97
-5.99
-7.34
-8.82
-10.08
-10.75
-10.60
-9.58
-7.98
-6.23
-4.84
-4.10
-3.98
-4.19
-4.34
-4.10
-3.37
-2.25
-0.96
0.25
1.26
2.05
2.68
3.23
3.72
4.13
4.42
4.57
4.69
4.93
5.41
6.08
6.74
7.04
6.72
5.78
4.48
3.25
2.45
2.23
2.43
2.75
2.92
2.77
2.36
1.86
1.46
1.33
1.50
1.92
2.46
2.99
3.36
3.44
3.15
2.44
1.35
0.04
-1.19
-2.08
-2.38
-2.06
-1.33
-0.54
-0.08
-0.19
-0.93
-2.17
-3.66
-5.16
-6.48
-7.52
-8.21
-8.59
-8.74
-8.82
-9.03
-9.48
-10.21
-11.08
-11.82
-12.16
-11.87
-10.93
-9.48
-7.86
-6.41
-5.37
-4.83
-4.66
-4.62
-4.51
-4.18
-3.62
-2.87
-2.00
-1.06
-0.13
0.71
1.34
1.62
1.57
1.30
0.98
0.81
0.85
1.11
1.52
2.01
2.58
3.21
3.98
4.89
5.92
6.96
7.87
8.51
8.78
8.66
8.21
7.54
6.78
6.07
5.47
5.05
4.86
4.96
5.30
5.78
6.21
6.35
6.08
5.38
4.35
3.21
2.15
1.32
0.78
0.53
0.49
0.57
0.68
0.75
0.73
0.54
0.11
-0.58
-1.50
-2.51
-3.42
-4.05
-4.30
-4.31
-4.31
-4.57
-5.29
-6.48
-8.04
-9.73
-11.28
-12.39
-12.86
-12.57
-11.57
-10.10
-8.46
-6.99
-5.90
-5.28
-5.02
-4.96
-4.90
-4.60
-3.87
-2.65
-0.96
0.94
2.67
3.85
4.29
4.09
3.61
3.28
3.37
3.87
4.53
5.00
5.01
4.60
3.98
3.49
3.40
3.77
4.47
5.23
5.82
6.08
6.06
5.92
5.82
5.85
5.97
6.09
6.13
6.09
6.01
6.00
6.08
6.22
6.26
6.06
5.52
4.64
3.55
2.42
1.42
0.58
-0.20
-1.06
-2.09
-3.26
-4.33
-5.01
-5.10
-4.62
-3.85
-3.16
-2.85
-2.99
-3.44
-4.00
-4.54
-5.13
-5.90
-6.96
-8.30
-9.69
-10.82
-11.38
-11.25
-10.57
-9.69
-8.99
-8.69
-8.72
-8.76
-8.45
-7.61
-6.35
-5.00
-3.91
-3.12
-2.45
-1.59
-0.30
1.40
3.26
4.94
6.22
7.06
7.62
8.10
8.65
9.30
9.93
10.40
10.58
10.49
10.26
10.10
10.19
10.53
10.98
11.26
11.15
10.62
9.81
8.97
8.33
7.97
7.86
7.88
7.85
7.71
7.40
6.95
6.37
5.69
4.91
4.00
2.95
1.77
0.58
-0.42
-0.99
-1.05
-0.66
-0.09
0.38
0.53
0.30
-0.20
-0.71
-0.98
-0.91
-0.51
0.02
0.39
0.30
-0.39
-1.61
-3.12
-4.63
-5.92
-6.93
-7.65
-8.09
-8.20
-7.90
-7.17
-6.12
-5.03
-4.20
-3.77
-3.76
-3.96
-4.13
-4.12
-3.92
-3.62
-3.35
-3.17
-3.05
-2.90
-2.65
-2.27
-1.81
-1.36
-0.97
-0.67
-0.40
-0.06
0.42
1.09
1.88
2.66
3.30
3.73
3.96
4.02
3.94
3.70
3.24
2.54
1.65
0.73
-0.01
-0.39
-0.35
0.02
0.49
0.81
0.76
0.27
-0.54
-1.41
-2.06
-2.30
-2.14
-1.81
-1.58
-1.70
-2.29
-3.33
-4.68
-6.09
-7.39
-8.37
-8.98
-9.27
-9.44
-9.72
-10.35
-11.37
-12.64
-13.93
-14.94
-15.39
-15.15
-14.21
-12.68
-10.84
-9.01
-7.47
-6.37
-5.66
-5.15
-4.55
-3.61
-2.22
-0.37
1.77
3.98
5.96
7.43
8.25
8.40
8.06
7.43
6.73
6.09
5.60
5.31
5.33
5.74
6.48
7.39
8.19
8.63
8.65
8.40
8.14
8.09
8.31
8.68
8.97
9.03
8.76
8.20
7.47
6.71
6.02
5.46
4.97
4.48
3.96
3.38
2.77
2.20
1.70
1.23
0.74
0.18
-0.44
-1.10
-1.71
-2.23
-2.60
-2.88
-3.12
-3.42
-3.86
-4.47
-5.23
-6.05
-6.88
-7.69
-8.58
-9.63
-10.92
-12.37
-13.80
-14.94
-15.57
-15.60
-15.10
-14.19
-13.02
-11.65
-10.12
-8.46
-6.72
-5.00
-3.39
-1.90
-0.47
1.01
2.61
4.32
6.01
7.43
8.41
8.87
8.91
8.77
8.65
8.74
9.01
9.40
9.76
10.00
10.12
10.19
10.33
10.57
10.90
11.20
11.37
11.33
11.07
10.69
10.29
9.99
9.77
9.52
9.07
8.28
7.17
5.92
4.86
4.30
4.33
4.80
5.37
5.68
5.53
4.97
4.19
3.45
2.91
2.60
2.44
2.29
2.04
1.61
1.02
0.37
-0.23
-0.70
-1.06
-1.45
-2.03
-2.89
-3.97
-5.12
-6.16
-7.07
-7.92
-8.79
-9.68
-10.42
-10.81
-10.68
-10.00
-8.92
-7.66
-6.41
-5.30
-4.36
-3.53
-2.72
-1.82
-0.77
0.39
1.58
2.63
3.46
4.09
4.66
5.25
5.92
6.49
6.81
6.76
6.38
5.83
5.31
4.98
4.86
4.89
5.01
5.14
5.27
5.43
5.63
5.84
6.03
6.12
6.03
5.72
5.22
4.64
4.10
3.66
3.33
2.97
2.49
1.81
0.96
0.02
-0.86
-1.61
-2.17
-2.57
-2.84
-3.04
-3.24
-3.49
-3.79
-4.14
-4.53
-4.96
-5.48
-6.14
-6.97
-7.92
-8.92
-9.92
-10.92
-12.05
-13.41
-15.03
-16.77
-18.36
-19.47
-19.81
-19.30
-17.99
-16.08
-13.77
-11.29
-8.79
-6.39
-4.15
-2.17
-0.50
0.80
1.71
2.29
2.61
2.84
3.12
3.54
4.13
4.82
5.47
5.91
6.03
5.84
5.52
5.36
5.63
6.43
7.63
8.89
9.83
10.21
10.06
9.59
9.08
8.71
8.48
8.32
8.10
7.81
7.49
7.20
6.95
6.63
6.15
5.40
4.42
3.28
2.14
1.17
0.48
0.10
-0.06
-0.13
-0.26
-0.52
-0.93
-1.43
-1.98
-2.62
-3.41
-4.41
-5.56
-6.72
-7.70
-8.40
-8.81
-9.13
-9.59
-10.37
-11.52
-12.85
-14.02
-14.71
-14.74
-14.13
-13.11
-11.97
-10.94
-10.06
-9.29
-8.56
-7.88
-7.29
-6.78
-6.18
-5.26
-3.78
-1.74
0.63
2.91
4.82
6.26
7.42
8.52
9.73
10.96
11.95
12.43
12.24
11.49
10.44
9.44
8.76
8.50
8.59
8.83
8.98
8.90
8.56
8.09
7.65
7.38
7.26
7.15
6.89
6.41
5.76
5.06
4.46
4.02
3.69
3.38
3.05
2.70
2.39
2.17
2.04
1.95
1.79
1.48
0.95
0.22
-0.64
-1.52
-2.26
-2.78
-3.08
-3.25
-3.48
-3.90
-4.57
-5.46
-6.43
-7.36
-8.17
-8.85
-9.43
-9.96
-10.46
-10.88
-11.12
-11.04
-10.60
-9.91
-9.13
-8.44
-7.90
-7.41
-6.76
-5.79
-4.44
-2.80
-1.06
0.63
2.18
3.58
4.89
6.16
7.34
8.39
9.27
9.95
10.44
10.79
11.07
11.34
11.60
11.73
11.61
11.17
10.48
9.75
9.21
9.00
9.09
9.27
9.30
9.03
8.48
7.78
7.15
6.73
6.58
6.63
6.81
7.02
7.20
7.29
7.27
7.10
6.76
6.22
5.48
4.66
3.89
3.36
3.12
3.10
3.08
2.78
2.09
1.06
-0.10
-1.17
-2.02
-2.69
-3.29
-3.98
-4.83
-5.88
-7.15
-8.61
-10.23
-11.94
-13.60
-15.07
-16.14
-16.69
-16.58
-15.83
-14.56
-13.03
-11.53
-10.34
-9.58
-9.17
-8.85
-8.35
-7.53
-6.37
-5.07
-3.87
-2.96
-2.38
-2.03
-1.73
-1.24
-0.45
0.63
1.88
3.11
4.17
4.92
5.31
5.38
5.13
4.61
3.88
3.07
2.32
1.80
1.56
1.59
1.82
2.15
2.52
2.88
3.19
3.40
3.48
3.47
3.46
3.55
3.73
3.90
3.86
3.42
2.52
1.31
0.05
-1.02
-1.77
-2.26
-2.64
-3.09
-3.81
-4.81
-6.02
-7.21
-8.18
-8.75
-8.90
-8.76
-8.52
-8.35
-8.38
-8.67
-9.29
-10.26
-11.54
-12.95
-14.21
-15.00
-15.12
-14.58
-13.60
-12.47
-11.43
-10.59
-9.86
-9.08
-8.02
-6.55
-4.65
-2.45
-0.24
1.62
2.90
3.51
3.59
3.48
3.47
3.75
4.36
5.24
6.31
7.51
8.77
9.94
10.87
11.36
11.33
10.82
10.02
9.14
8.40
7.90
7.62
7.48
7.40
7.30
7.17
6.99
6.77
6.49
6.12
5.63
5.07
4.52
4.05
3.65
3.21
2.54
1.54
0.22
-1.23
-2.54
-3.53
-4.11
-4.37
-4.41
-4.35
-4.24
-4.13
-4.09
-4.19
-4.45
-4.87
-5.39
-6.02
-6.81
-7.85
-9.24
-10.94
-12.74
-14.36
-15.55
-16.17
-16.22
-15.82
-15.05
-14.01
-12.79
-11.46
-10.16
-8.96
-7.87
-6.82
-5.67
-4.33
-2.76
-1.08
0.54
1.92
2.96
3.74
4.44
5.30
6.53
8.15
9.96
11.62
12.80
13.34
13.30
12.88
12.32
11.85
11.56
11.50
11.64
12.01
12.61
13.39
14.22
14.87
15.15
14.87
13.90
12.24
10.16
8.11
6.58
5.90
6.10
7.15
8.68
10.10
10.78
10.50
9.45
8.24
7.45
7.46
8.75
11.21
13.97
15.81
15.98
14.61
12.50
10.76
10.13
11.60
15.09
19.29
22.31
22.93
21.34
18.97
17.85
20.15
28.86
45.93
71.01
101.30
132.24
158.68
176.05
181.79
170.23
142.81
109.04
81.60
68.18
68.41
77.01
88.34
99.06
108.27
118.02
128.95
139.36
146.38
147.69
142.80
132.80
119.59
104.73
89.37
75.16
61.68
47.27
30.34
10.42
-11.87
-35.09
-57.66
-77.78
-94.59
-108.72
-121.71
-135.16
-150.25
-167.64
-187.72
-210.56
-235.04
-258.74
-278.16
-289.14
-288.14
-273.64
-247.04
-212.43
-175.16
-139.93
-109.50
-84.68
-64.82
-48.77
-35.44
-24.09
-14.09
-4.81
4.33
13.53
22.40
30.04
35.41
37.82
37.18
34.16
29.80
25.24
21.31
18.25
15.85
13.48
10.41
6.05
0.26
-6.61
-13.75
-20.13
-24.92
-27.77
-28.90
-28.94
-28.55
-28.16
-27.79
-27.22
-26.15
-24.48
-22.39
-20.28
-18.58
-17.63
-17.56
-18.27
-19.52
-21.06
-22.78
-24.76
-27.21
-30.39
-34.32
-38.71
-43.01
-46.57
-48.94
-50.01
-49.86
-48.60
-46.30
-42.87
-38.26
-32.71
-26.74
-21.04
-16.15
-12.30
-9.30
-6.68
-3.96
-0.86
2.57
6.04
9.15
11.67
13.46
14.59
15.24
15.52
15.51
15.20
14.62
13.84
13.09
12.63
12.59
12.89
13.18
13.05
12.16
10.47
8.21
5.83
3.91
2.86
2.80
3.61
4.94
6.36
7.56
8.33
8.63
8.44
7.82
6.92
5.96
5.22
4.89
5.10
5.81
6.90
8.21
9.64
11.11
12.51
13.64
14.30
14.42
14.07
13.45
12.81
12.24
11.68
11.04
10.30
9.59
9.14
9.08
9.40
9.93
10.44
10.77
10.92
11.01
11.14
11.35
11.51
11.51
11.22
10.54
9.43
7.99
6.30
4.56
3.04
1.93
1.41
1.53
2.15
3.02
3.78
4.12
3.86
3.05
1.87
0.64
-0.37
-1.07
-1.63
-2.36
-3.54
-5.35
-7.72
-10.44
-13.17
-15.52
-17.14
-17.82
-17.57
-16.55
-15.09
-13.44
-11.72
-9.79
-7.51
-4.83
-1.89
0.91
3.17
4.67
5.44
5.75
5.91
6.13
6.42
6.76
7.04
7.20
7.30
7.45
7.73
8.18
8.70
9.11
9.22
8.93
8.33
7.64
7.12
6.90
6.99
7.24
7.44
7.42
7.08
6.46
5.64
4.69
3.74
2.90
2.26
1.90
1.79
1.88
2.10
2.47
3.04
3.79
4.71
5.65
6.45
6.98
7.18
7.10
6.76
6.20
5.41
4.41
3.12
1.54
-0.49
-3.02
-5.94
-9.01
-11.81
-13.93
-15.04
-15.09
-14.23
-12.80
-11.15
-9.58
-8.32
-7.31
-6.48
-5.58
-4.46
-3.01
-1.22
0.79
2.86
4.79
6.48
7.81
8.81
9.51
10.06
10.58
11.13
11.71
12.21
12.57
12.74
12.73
12.67
12.62
12.69
12.79
12.87
12.84
12.63
12.16
11.33
10.11
8.43
6.41
4.28
2.33
0.80
-0.17
-0.64
-0.78
-0.83
-0.97
-1.22
-1.50
-1.69
-1.70
-1.54
-1.32
-1.21
-1.31
-1.70
-2.28
-2.91
-3.44
-3.74
-3.84
-3.81
-3.78
-3.80
-3.90
-4.05
-4.22
-4.45
-4.86
-5.69
-7.19
-9.44
-12.21
-15.03
-17.22
-18.21
-17.83
-16.26
-14.09
-11.91
-10.15
-8.88
-7.98
-7.21
-6.47
-5.75
-5.05
-4.31
-3.32
-1.94
-0.15
1.89
3.88
5.48
6.51
7.05
7.37
7.84
8.66
9.82
11.07
12.03
12.44
12.31
11.85
11.41
11.25
11.46
11.97
12.69
13.60
14.71
16.00
17.37
18.58
19.41
19.74
19.53
18.86
17.83
16.55
15.17
13.83
12.63
11.57
10.58
9.59
8.60
7.70
6.98
6.40
5.89
5.27
4.43
3.41
2.41
1.62
1.13
0.88
0.67
0.42
0.04
-0.40
-0.86
-1.33
-1.79
-2.29
-2.88
-3.59
-4.40
-5.30
-6.13
-6.71
-6.92
-6.76
-6.37
-6.03
-5.98
-6.32
-6.95
-7.58
-7.87
-7.67
-6.99
-5.94
-4.73
-3.56
-2.57
-1.91
-1.61
-1.61
-1.70
-1.64
-1.22
-0.28
1.18
3.06
5.15
7.20
8.95
10.15
10.70
10.60
9.99
9.05
7.99
6.91
5.96
5.21
4.67
4.31
3.97
3.52
2.84
2.04
1.32
0.90
0.86
1.05
1.20
0.98
0.22
-1.14
-2.88
-4.59
-5.84
-6.26
-5.69
-4.30
-2.49
-0.82
0.28
0.62
0.23
-0.74
-2.06
-3.57
-5.13
-6.61
-7.89
-8.87
-9.61
-10.22
-10.95
-11.88
-13.06
-14.32
-15.38
-15.96
-15.84
-14.95
-13.36
-11.31
-9.05
-6.87
-4.90
-3.18
-1.68
-0.37
0.84
1.97
3.04
3.94
4.55
4.68
4.33
3.56
2.54
1.57
0.81
0.34
0.09
-0.01
0.02
0.23
0.68
1.36
2.23
3.10
3.91
4.61
5.18
5.61
5.93
6.19
6.43
6.73
7.05
7.28
7.29
6.96
6.32
5.48
4.65
3.88
3.21
2.58
1.98
1.49
1.21
1.21
1.48
1.87
2.19
2.36
2.36
2.29
2.20
2.04
1.73
1.12
0.18
-1.02
-2.34
-3.68
-5.06
-6.60
-8.48
-10.78
-13.41
-16.11
-18.44
-20.01
-20.59
-20.11
-18.76
-16.87
-14.89
-13.17
-11.91
-11.03
-10.29
-9.33
-7.87
-5.82
-3.30
-0.59
1.98
4.20
6.01
7.41
8.43
9.02
9.12
8.74
8.07
7.46
7.31
7.79
8.82
9.97
10.79
10.93
10.40
9.41
8.33
7.46
6.86
6.45
6.17
5.92
5.71
5.61
5.62
5.76
5.94
6.03
5.92
5.69
5.45
5.42
5.78
6.49
7.39
8.19
8.62
8.58
8.21
7.73
7.36
7.15
7.00
6.67
5.95
4.77
3.24
1.62
0.07
-1.26
-2.42
-3.61
-5.02
-6.75
-8.77
-10.82
-12.62
-13.94
-14.64
-14.65
-14.10
-13.10
-11.84
-10.53
-9.35
-8.41
-7.76
-7.24
-6.61
-5.65
-4.20
-2.27
-0.05
2.14
3.93
5.04
5.40
5.14
4.58
4.04
3.76
3.75
3.88
3.97
3.94
3.93
4.05
4.46
5.16
5.97
6.69
7.15
7.28
7.14
6.89
6.67
6.59
6.72
7.03
7.38
7.57
7.39
6.78
5.84
4.82
4.00
3.52
3.37
3.45
3.59
3.74
3.97
4.36
4.91
5.52
6.00
6.18
6.00
5.43
4.49
3.20
1.53
-0.46
-2.72
-5.09
-7.40
-9.55
-11.54
-13.46
-15.32
-17.06
-18.52
-19.48
-19.82
-19.51
-18.69
-17.54
-16.20
-14.79
-13.31
-11.77
-10.07
-8.14
-5.88
-3.25
-0.32
2.56
4.90
6.24
6.31
5.27
3.60
1.93
0.74
0.22
0.21
0.41
0.53
0.48
0.35
0.29
0.46
0.82
1.25
1.60
1.82
1.90
1.95
1.99
2.06
2.03
1.76
1.17
0.33
-0.46
-0.83
-0.46
0.69
2.41
4.23
5.69
6.54
6.71
6.45
6.04
5.73
5.66
5.78
5.94
5.95
5.73
5.21
4.41
3.39
2.14
0.58
-1.33
-3.60
-6.10
-8.58
-10.90
-13.04
-15.12
-17.33
-19.70
-22.02
-23.86
-24.81
-24.57
-23.14
-20.71
-17.66
-14.40
-11.25
-8.44
-6.02
-3.85
-1.75
0.36
2.45
4.31
5.70
6.49
6.77
6.80
6.86
7.15
7.62
8.13
8.57
8.91
9.21
9.58
10.05
10.51
10.80
10.82
10.53
10.04
9.47
8.91
8.40
7.96
7.53
7.16
6.86
6.64
6.48
6.34
6.21
6.10
6.07
6.22
6.61
7.17
7.81
8.40
8.87
9.24
9.58
9.91
10.18
10.32
10.20
9.85
9.30
8.63
7.82
6.73
5.21
3.21
0.94
-1.16
-2.69
-3.43
-3.57
-3.63
-4.22
-5.80
-8.49
-11.95
-15.55
-18.54
-20.36
-20.72
-19.76
-17.90
-15.58
-13.25
-11.15
-9.45
-8.16
-7.28
-6.71
-6.30
-5.77
-4.81
-3.29
-1.27
0.90
2.79
4.02
4.46
4.27
3.82
3.56
3.82
4.76
6.33
8.26
10.23
11.93
13.20
14.00
14.37
14.36
14.14
13.82
13.54
13.42
13.50
13.76
14.01
14.00
13.50
12.49
11.07
9.47
7.93
6.68
5.82
5.37
5.22
5.29
5.46
5.70
6.00
6.36
6.61
6.56
6.06
5.04
3.63
2.05
0.52
-0.87
-2.27
-3.90
-5.91
-8.23
-10.61
-12.77
-14.55
-15.98
-17.26
-18.56
-19.86
-20.90
-21.29
-20.76
-19.30
-17.21
-15.01
-13.20
-12.06
-11.62
-11.58
-11.55
-11.17
-10.18
-8.56
-6.36
-3.80
-1.01
1.79
4.48
6.84
8.74
10.03
10.59
10.46
9.77
8.78
7.77
6.99
6.52
6.28
6.08
5.66
4.91
3.91
2.84
1.91
1.25
0.79
0.41
0.03
-0.35
-0.60
-0.56
-0.11
0.75
1.88
3.10
4.18
4.98
5.38
5.40
5.11
4.62
3.94
3.05
1.87
0.38
-1.26
-2.84
-4.13
-5.01
-5.62
-6.17
-6.85
-7.70
-8.61
-9.42
-10.06
-10.58
-11.16
-11.91
-12.88
-13.95
-15.00
-15.87
-16.38
-16.41
-15.93
-15.02
-13.93
-12.94
-12.27
-11.91
-11.64
-11.11
-10.07
-8.43
-6.24
-3.73
-1.10
1.45
3.79
5.89
7.70
9.25
10.58
11.83
13.05
14.31
15.55
16.66
17.47
17.81
17.59
16.91
16.03
15.29
14.96
15.13
15.65
16.20
16.53
16.47
16.04
15.41
14.67
13.87
12.98
11.90
10.52
8.86
6.96
4.97
3.04
1.30
-0.21
-1.47
-2.54
-3.43
-4.11
-4.51
-4.57
-4.33
-3.94
-3.56
-3.30
-3.12
-2.93
-2.54
-1.92
-1.12
-0.33
0.32
0.70
0.73
0.41
-0.28
-1.26
-2.45
-3.70
-4.99
-6.34
-7.82
-9.48
-11.16
-12.55
-13.31
-13.24
-12.34
-10.90
-9.29
-7.89
-6.87
-6.19
-5.65
-5.03
-4.11
-2.79
-1.09
0.82
2.72
4.40
5.77
6.79
7.50
8.00
8.31
8.47
8.53
8.50
8.38
8.20
8.02
7.93
8.06
8.42
8.97
9.60
10.25
10.96
11.93
13.33
15.24
17.50
19.70
21.35
22.13
21.95
20.91
19.24
17.08
14.53
11.70
8.79
6.09
3.98
2.61
2.00
1.84
1.72
1.24
0.18
-1.39
-3.21
-4.93
-6.28
-7.15
-7.61
-7.85
-8.05
-8.36
-8.82
-9.42
-10.17
-11.08
-12.13
-13.21
-14.18
-14.85
-15.11
-14.99
-14.69
-14.43
-14.35
-14.38
-14.30
-13.79
-12.62
-10.78
-8.53
-6.33
-4.58
-3.46
-2.87
-2.48
-1.98
-1.20
-0.19
0.90
1.89
2.78
3.59
4.34
4.96
5.30
5.22
4.64
3.58
2.13
0.47
-1.19
-2.64
-3.68
-4.18
-4.22
-3.92
-3.46
-2.89
-2.18
-1.23
-0.06
1.21
2.30
2.99
3.20
3.00
2.62
2.26
2.05
2.07
2.36
2.83
3.33
3.68
3.67
3.23
2.45
1.50
0.58
-0.15
-0.76
-1.46
-2.57
-4.37
-7.12
-10.82
-15.20
-19.72
-23.54
-25.88
-26.33
-24.97
-22.41
-19.51
-17.05
-15.44
-14.61
-14.11
-13.42
-12.14
-10.16
-7.61
-4.78
-1.96
0.58
2.72
4.44
5.75
6.70
7.34
7.72
7.94
8.19
8.62
9.26
10.12
11.05
11.85
12.38
12.45
12.00
11.06
9.80
8.50
7.56
7.18
7.48
8.31
9.34
10.25
10.77
10.80
10.37
9.62
8.66
7.66
6.73
5.99
5.46
5.19
5.13
5.19
5.24
5.05
4.46
3.36
1.74
-0.25
-2.34
-4.31
-6.07
-7.61
-9.06
-10.44
-11.68
-12.68
-13.31
-13.61
-13.75
-13.96
-14.36
-15.02
-15.87
-16.79
-17.67
-18.31
-18.51
-18.17
-17.29
-15.90
-14.25
-12.42
-10.44
-8.30
-5.94
-3.35
-0.68
1.94
4.41
6.53
8.18
9.20
9.47
9.13
8.52
8.04
8.03
8.60
9.51
10.51
11.38
12.12
12.89
13.88
15.04
16.15
16.99
17.35
17.30
17.00
16.65
16.37
16.14
15.80
15.26
14.43
13.36
12.22
11.19
10.36
9.80
9.40
9.03
8.60
7.99
7.18
6.22
5.22
4.36
3.76
3.50
3.55
3.78
4.02
4.07
3.80
3.22
2.34
1.25
-0.05
-1.58
-3.34
-5.27
-7.26
-9.18
-10.95
-12.57
-14.01
-15.22
-16.07
-16.41
-16.11
-15.17
-13.69
-11.91
-10.01
-8.19
-6.51
-4.93
-3.42
-1.95
-0.63
0.38
0.88
0.82
0.28
-0.45
-1.07
-1.38
-1.41
-1.37
-1.48
-1.82
-2.30
-2.77
-3.08
-3.23
-3.29
-3.32
-3.36
-3.37
-3.26
-2.97
-2.46
-1.74
-0.84
0.20
1.30
2.34
3.30
4.24
5.17
6.12
6.97
7.45
7.29
6.40
4.77
2.70
0.49
-1.55
-3.23
-4.43
-5.20
-5.59
-5.63
-5.37
-4.78
-3.88
-2.76
-1.70
-1.00
-0.95
-1.65
-2.96
-4.65
-6.52
-8.49
-10.57
-12.69
-14.65
-16.10
-16.67
-16.20
-14.81
-12.86
-10.81
-9.00
-7.54
-6.40
-5.42
-4.40
-3.18
-1.76
-0.23
1.18
2.22
2.78
2.90
2.80
2.79
3.15
3.96
5.10
6.30
7.26
7.84
8.02
7.87
7.47
6.91
6.24
5.49
4.74
4.08
3.63
3.45
3.49
3.62
3.63
3.42
3.06
2.76
2.76
3.23
4.14
5.26
6.32
7.02
7.21
6.91
6.19
5.14
3.81
2.30
0.73
-0.73
-1.90
-2.66
-3.03
-3.18
-3.49
-4.25
-5.53
-7.12
-8.61
-9.58
-9.85
-9.56
-9.18
-9.20
-9.96
-11.43
-13.27
-15.03
-16.36
-17.04
-17.06
-16.54
-15.61
-14.37
-12.87
-11.08
-9.03
-6.73
-4.33
-2.01
0.10
1.93
3.59
5.20
6.91
8.70
10.41
11.78
12.57
12.68
12.22
11.47
10.71
10.23
10.20
10.59
11.24
11.92
12.40
12.58
12.45
12.07
11.51
10.78
9.88
8.91
8.05
7.55
7.58
8.15
9.02
9.90
10.55
10.94
11.17
11.43
11.82
12.28
12.62
12.61
12.19
11.33
10.12
8.68
7.06
5.23
3.16
0.87
-1.56
-3.84
-5.66
-6.79
-7.10
-6.78
-6.13
-5.49
-5.10
-5.00
-5.05
-5.12
-5.14
-5.13
-5.15
-5.26
-5.38
-5.45
-5.38
-5.14
-4.79
-4.41
-4.05
-3.76
-3.56
-3.43
-3.39
-3.46
-3.62
-3.76
-3.73
-3.35
-2.53
-1.27
0.24
1.70
2.85
3.50
3.68
3.57
3.40
3.33
3.38
3.45
3.36
3.04
2.48
1.74
0.87
-0.08
-1.10
-2.11
-3.05
-3.76
-4.17
-4.19
-3.85
-3.23
-2.47
-1.72
-1.13
-0.67
-0.24
0.33
1.18
2.26
3.36
4.09
4.15
3.41
1.98
0.10
-1.91
-3.76
-5.26
-6.34
-7.06
-7.63
-8.36
-9.54
-11.31
-13.60
-16.06
-18.26
-19.83
-20.49
-20.31
-19.50
-18.39
-17.30
-16.44
-15.73
-14.97
-13.89
-12.33
-10.40
-8.34
-6.40
-4.68
-3.13
-1.58
0.06
1.77
3.42
4.88
6.18
7.35
8.45
9.43
10.20
10.65
10.82
10.83
10.81
10.83
10.83
10.68
10.31
9.64
8.70
7.54
6.32
5.18
4.31
3.78
3.60
3.72
4.04
4.52
5.18
6.03
7.03
8.05
8.84
9.23
9.09
8.43
7.39
6.16
4.91
3.84
3.13
2.79
2.72
2.63
2.13
0.99
-0.78
-2.90
-4.95
-6.65
-7.98
-9.18
-10.66
-12.63
-14.98
-17.33
-19.16
-20.10
-20.10
-19.38
-18.32
-17.23
-16.19
-15.10
-13.78
-12.13
-10.20
-8.21
-6.37
-4.72
-3.23
-1.74
-0.16
1.49
3.06
4.40
5.43
6.17
6.72
7.07
7.21
7.07
6.66
6.23
6.07
6.41
7.36
8.76
10.22
11.28
11.58
11.06
10.01
8.88
8.16
8.14
8.79
9.76
10.61
11.01
10.87
10.41
9.87
9.50
9.33
9.24
9.07
8.76
8.35
7.96
7.74
7.72
7.83
7.83
7.50
6.74
5.66
4.55
3.68
3.25
3.20
3.30
3.25
2.85
2.05
0.91
-0.50
-2.10
-3.82
-5.61
-7.36
-8.99
-10.46
-11.71
-12.69
-13.23
-13.15
-12.37
-11.02
-9.39
-7.90
-6.74
-5.91
-5.17
-4.30
-3.20
-1.95
-0.77
0.17
0.82
1.26
1.67
2.19
2.88
3.70
4.54
5.27
5.86
6.38
7.02
7.95
9.12
10.33
11.21
11.53
11.23
10.53
9.71
8.99
8.39
7.76
6.95
5.98
4.95
4.08
3.49
3.13
2.81
2.36
1.68
0.84
0.09
-0.34
-0.30
0.27
1.07
1.74
1.93
1.45
0.42
-0.83
-1.95
-2.72
-3.21
-3.71
-4.49
-5.67
-7.21
-8.86
-10.37
-11.58
-12.54
-13.31
-14.05
-14.79
-15.49
-16.09
-16.47
-16.55
-16.37
-16.03
-15.67
-15.42
-15.21
-14.86
-14.11
-12.71
-10.58
-7.81
-4.70
-1.57
1.22
3.46
5.03
6.00
6.62
7.13
7.76
8.56
9.36
9.95
10.20
10.14
9.93
9.78
9.75
9.79
9.77
9.60
9.30
8.91
8.50
8.01
7.37
6.54
5.63
4.72
3.94
3.37
2.93
2.63
2.46
2.51
2.81
3.30
3.82
4.17
4.15
3.67
2.75
1.58
0.36
-0.69
-1.46
-1.96
-2.28
-2.61
-3.16
-4.04
-5.31
-6.89
-8.59
-10.16
-11.41
-12.25
-12.77
-13.20
-13.78
-14.69
-15.87
-17.05
-17.95
-18.27
-17.90
-16.80
-15.01
-12.62
-9.88
-7.11
-4.73
-3.08
-2.27
-2.09
-2.12
-1.89
-1.13
0.16
1.78
3.45
4.97
6.25
7.32
8.19
8.86
9.30
9.46
9.33
8.88
8.19
7.38
6.67
6.21
6.15
6.47
7.02
7.63
8.11
8.38
8.51
8.57
8.59
8.52
8.29
7.79
7.10
6.31
5.56
4.93
4.42
3.98
3.61
3.38
3.44
3.96
5.03
6.62
8.49
10.37
11.93
12.97
13.41
13.25
12.58
11.49
10.09
8.41
6.50
4.41
2.23
0.10
-1.92
-3.77
-5.48
-7.17
-9.02
-11.17
-13.60
-16.07
-18.13
-19.36
-19.51
-18.60
-16.95
-14.93
-12.87
-10.95
-9.19
-7.56
-6.07
-4.70
-3.42
-2.14
-0.66
1.18
3.40
5.82
8.08
9.70
10.34
9.92
8.71
7.23
6.03
5.48
5.56
6.07
6.65
7.07
7.30
7.36
7.38
7.39
7.46
7.56
7.74
7.99
8.30
8.66
8.97
9.27
9.53
9.66
9.51
8.99
8.10
7.06
6.14
5.51
5.25
5.12
4.81
4.10
3.01
1.72
0.51
-0.47
-1.28
-2.03
-2.84
-3.72
-4.52
-5.13
-5.49
-5.71
-5.94
-6.41
-7.22
-8.30
-9.46
-10.38
-10.86
-10.85
-10.48
-10.05
-9.89
-10.16
-10.81
-11.59
-12.12
-12.22
-11.83
-11.05
-10.05
-9.04
-8.14
-7.45
-7.05
-6.85
-6.76
-6.55
-6.01
-5.09
-3.85
-2.52
-1.25
-0.11
0.96
2.08
3.27
4.47
5.53
6.32
6.82
7.03
7.05
6.95
6.75
6.49
6.23
6.00
5.84
5.78
5.78
5.75
5.57
5.10
4.28
3.16
1.94
0.85
0.05
-0.43
-0.72
-1.03
-1.54
-2.40
-3.69
-5.41
-7.51
-9.76
-11.86
-13.49
-14.48
-14.86
-14.94
-15.15
-15.79
-16.98
-18.56
-20.15
-21.31
-21.70
-21.11
-19.49
-17.02
-13.99
-10.87
-8.10
-6.01
-4.68
-3.91
-3.31
-2.48
-1.21
0.50
2.41
4.28
5.93
7.28
8.41
9.35
10.13
10.71
11.09
11.32
11.42
11.47
11.40
11.20
10.83
10.40
10.01
9.84
9.91
10.13
10.34
10.41
10.30
10.05
9.69
9.24
8.61
7.75
6.62
5.31
3.89
2.40
0.83
-0.83
-2.46
-3.89
-4.91
-5.45
-5.56
-5.44
-5.25
-5.06
-4.82
-4.39
-3.67
-2.67
-1.49
-0.21
0.97
1.85
2.26
2.11
1.45
0.49
-0.53
-1.49
-2.37
-3.28
-4.34
-5.48
-6.53
-7.36
-7.89
-8.21
-8.41
-8.53
-8.39
-7.85
-6.80
-5.39
-4.02
-3.01
-2.56
-2.51
-2.48
-2.07
-1.05
0.57
2.46
4.16
5.42
6.22
6.85
7.70
9.04
10.87
12.83
14.45
15.37
15.56
15.24
14.81
14.55
14.45
14.40
14.21
13.87
13.46
13.21
13.23
13.53
13.97
14.29
14.27
13.70
12.53
10.89
9.06
7.35
5.94
4.92
4.10
3.34
2.53
1.74
1.08
0.66
0.50
0.53
0.67
0.78
0.82
0.69
0.40
-0.08
-0.68
-1.32
-1.85
-2.17
-2.30
-2.28
-2.19
-2.12
-2.26
-2.76
-3.81
-5.48
-7.63
-10.06
-12.38
-14.23
-15.34
-15.58
-14.97
-13.72
-12.16
-10.60
-9.32
-8.37
-7.58
-6.70
-5.57
-4.26
-2.99
-2.09
-1.60
-1.40
-1.18
-0.67
0.15
1.13
2.00
2.55
2.78
2.87
3.03
3.35
3.78
4.08
4.05
3.58
2.76
1.81
1.01
0.48
0.18
-0.05
-0.33
-0.63
-0.83
-0.75
-0.36
0.24
0.84
1.28
1.51
1.63
1.75
1.93
2.08
2.11
1.90
1.53
1.07
0.60
0.09
-0.59
-1.57
-2.93
-4.62
-6.44
-8.11
-9.34
-10.00
-10.11
-9.97
-10.02
-10.69
-12.16
-14.36
-16.87
-19.10
-20.55
-20.86
-20.03
-18.28
-16.02
-13.70
-11.62
-9.94
-8.59
-7.38
-6.07
-4.52
-2.72
-0.81
1.01
2.65
4.07
5.31
6.43
7.50
8.52
9.51
10.43
11.16
11.58
11.61
11.30
10.82
10.40
10.20
10.24
10.38
10.46
10.32
9.94
9.34
8.55
7.61
6.52
5.44
4.56
4.03
3.83
3.85
3.88
3.78
3.52
3.17
2.82
2.48
2.17
1.83
1.52
1.25
1.09
1.04
1.08
1.11
1.04
0.75
0.16
-0.69
-1.63
-2.42
-2.87
-2.99
-3.00
-3.25
-4.03
-5.41
-7.24
-9.29
-11.40
-13.42
-15.28
-16.88
-18.00
-18.42
-17.99
-16.73
-14.83
-12.59
-10.25
-8.09
-6.19
-4.53
-2.94
-1.20
0.91
3.38
5.97
8.35
10.09
11.06
11.35
11.34
11.45
11.95
12.89
14.01
14.93
15.24
14.75
13.53
11.90
10.29
9.09
8.50
8.42
8.62
8.84
8.90
8.78
8.51
8.19
7.83
7.42
6.96
6.51
6.15
5.96
5.93
5.91
5.84
5.66
5.34
4.89
4.38
3.91
3.56
3.34
3.16
2.80
2.06
0.85
-0.66
-2.05
-2.91
-3.05
-2.62
-2.03
-1.69
-1.74
-2.02
-2.22
-2.15
-1.96
-2.02
-2.73
-4.19
-6.09
-7.81
-8.70
-8.41
-7.11
-5.35
-3.78
-2.86
-2.71
-3.05
-3.48
-3.70
-3.61
-3.43
-3.44
-3.82
-4.53
-5.39
-6.16
-6.68
-6.99
-7.19
-7.36
-7.46
-7.36
-6.84
-5.84
-4.43
-2.85
-1.37
-0.17
0.78
1.66
2.67
3.93
5.32
6.63
7.61
8.16
8.27
8.06
7.60
6.96
6.13
5.15
4.03
2.93
1.94
1.21
0.80
0.70
0.79
0.84
0.53
-0.31
-1.63
-3.10
-4.26
-4.78
-4.62
-4.11
-3.71
-3.82
-4.58
-5.76
-7.04
-8.11
-8.89
-9.55
-10.40
-11.64
-13.33
-15.25
-16.99
-18.14
-18.43
-17.77
-16.34
-14.47
-12.43
-10.50
-8.80
-7.40
-6.35
-5.64
-5.23
-4.97
-4.69
-4.14
-3.25
-2.07
-0.81
0.29
1.12
1.74
2.38
3.25
4.42
5.83
7.28
8.63
9.75
10.59
11.10
11.23
10.97
10.46
9.90
9.56
9.58
9.91
10.40
10.77
10.86
10.59
10.05
9.30
8.46
7.57
6.62
5.67
4.75
3.97
3.36
2.95
2.61
2.14
1.33
0.07
-1.55
-3.29
-4.86
-5.99
-6.58
-6.72
-6.63
-6.57
-6.70
-7.00
-7.34
-7.50
-7.30
-6.79
-6.22
-5.97
-6.36
-7.46
-9.07
-10.83
-12.26
-13.04
-13.03
-12.26
-10.89
-9.08
-7.03
-4.93
-2.96
-1.22
0.19
1.28
2.16
3.01
4.00
5.26
6.77
8.37
9.79
10.79
11.31
11.47
11.55
11.73
12.12
12.65
13.18
13.62
13.97
14.26
14.53
14.71
14.68
14.31
13.56
12.52
11.34
10.23
9.39
8.85
8.61
8.48
8.27
7.82
7.14
6.33
5.61
5.06
4.53
3.80
2.70
1.37
0.17
-0.41
-0.11
1.03
2.61
4.16
5.34
6.02
6.29
6.27
5.95
5.33
4.43
3.36
2.27
1.37
0.61
-0.14
-1.12
-2.57
-4.56
-6.96
-9.47
-11.73
-13.37
-14.18
-14.07
-13.17
-11.70
-9.93
-8.14
-6.57
-5.33
-4.41
-3.72
-3.13
-2.58
-2.13
-1.94
-2.14
-2.71
-3.43
-3.98
-4.05
-3.60
-2.75
-1.80
-1.03
-0.56
-0.30
-0.02
0.49
1.27
2.24
3.19
3.90
4.22
4.14
3.77
3.26
2.68
2.01
1.23
0.34
-0.55
-1.26
-1.61
-1.61
-1.42
-1.32
-1.53
-2.06
-2.65
-2.99
-2.91
-2.44
-1.85
-1.45
-1.42
-1.73
-2.22
-2.77
-3.27
-3.73
-4.18
-4.66
-5.18
-5.76
-6.43
-7.25
-8.33
-9.78
-11.65
-13.85
-16.14
-18.09
-19.25
-19.27
-18.07
-16.01
-13.63
-11.50
-9.97
-9.12
-8.74
-8.50
-8.10
-7.37
-6.31
-4.99
-3.53
-1.99
-0.39
1.25
2.85
4.24
5.31
5.97
6.40
6.90
7.72
8.97
10.46
11.75
12.38
12.18
11.28
10.05
8.93
8.13
7.72
7.67
7.93
8.45
9.16
9.92
10.56
10.93
10.91
10.48
9.69
8.61
7.31
5.97
4.75
3.84
3.29
2.99
2.73
2.30
1.67
0.92
0.25
-0.28
-0.77
-1.42
-2.43
-3.83
-5.45
-7.06
-8.42
-9.40
-10.00
-10.33
-10.52
-10.72
-11.03
-11.59
-12.40
-13.41
-14.48
-15.49
-16.35
-16.91
-17.07
-16.64
-15.58
-13.92
-11.82
-9.55
-7.35
-5.38
-3.65
-2.12
-0.67
0.69
1.96
3.15
4.25
5.25
6.09
6.78
7.33
7.87
8.50
9.29
10.20
11.10
11.87
12.39
12.68
12.74
12.65
12.45
12.11
11.71
11.27
10.82
10.35
9.82
9.24
8.64
8.06
7.50
6.90
6.11
5.07
3.84
2.65
1.85
1.70
2.27
3.35
4.61
5.65
6.26
6.44
6.36
6.24
6.19
6.17
6.06
5.75
5.25
4.67
4.07
3.44
2.56
1.26
-0.52
-2.57
-4.55
-6.09
-7.03
-7.53
-7.92
-8.53
-9.54
-10.93
-12.52
-14.06
-15.29
-16.00
-16.05
-15.40
-14.10
-12.29
-10.15
-7.89
-5.70
-3.72
-2.04
-0.65
0.50
1.54
2.57
3.64
4.75
5.80
6.71
7.48
8.11
8.61
8.98
9.22
9.27
9.15
8.86
8.30
7.46
6.35
5.12
4.01
3.28
2.99
3.07
3.28
3.38
3.35
3.29
3.46
4.04
4.99
6.05
6.95
7.49
7.63
7.43
7.02
6.45
5.78
4.99
4.14
3.32
2.63
2.15
1.80
1.37
0.63
-0.58
-2.20
-3.93
-5.35
-6.09
-6.03
-5.36
-4.54
-4.00
-3.96
-4.41
-5.18
-6.11
-7.18
-8.46
-9.86
-11.20
-12.22
-12.73
-12.74
-12.51
-12.32
-12.38
-12.72
-13.16
-13.46
-13.36
-12.71
-11.36
-9.30
-6.70
-3.93
-1.41
0.44
1.41
1.64
1.48
1.35
1.60
2.34
3.49
4.85
6.28
7.66
8.98
10.24
11.31
12.09
12.50
12.53
12.25
11.82
11.42
11.11
10.87
10.51
9.78
8.54
6.80
4.80
2.90
1.45
0.63
0.36
0.32
0.18
-0.24
-0.86
-1.41
-1.60
-1.38
-1.04
-0.98
-1.50
-2.64
-4.09
-5.42
-6.29
-6.70
-6.94
-7.37
-8.18
-9.25
-10.32
-11.17
-11.84
-12.64
-13.88
-15.76
-18.01
-20.05
-21.19
-21.00
-19.48
-17.07
-14.38
-11.92
-9.95
-8.41
-7.13
-5.96
-4.83
-3.73
-2.61
-1.34
0.24
2.19
4.38
6.47
8.11
9.04
9.25
8.96
8.49
8.14
8.03
8.14
8.38
8.69
9.09
9.69
10.56
11.66
12.88
14.07
15.12
16.00
16.73
17.29
17.66
17.73
17.35
16.44
15.01
13.17
11.10
8.94
6.78
4.68
2.67
0.81
-0.78
-1.98
-2.62
-2.70
-2.30
-1.64
-0.93
-0.31
0.11
0.34
0.35
0.11
-0.43
-1.38
-2.77
-4.57
-6.60
-8.62
-10.34
-11.66
-12.59
-13.29
-13.91
-14.46
-14.85
-14.93
-14.55
-13.68
-12.36
-10.66
-8.61
-6.24
-3.63
-0.96
1.45
3.36
4.70
5.60
6.31
7.04
7.84
8.60
9.18
9.48
9.55
9.53
9.57
9.74
10.04
10.29
10.34
10.11
9.61
9.03
8.62
8.54
8.84
9.30
9.65
9.66
9.37
8.87
8.39
8.03
7.75
7.43
6.99
6.48
6.00
5.73
5.71
5.91
6.26
6.56
6.73
6.63
6.23
5.52
4.58
3.46
2.22
0.90
-0.52
-1.97
-3.36
-4.54
-5.46
-6.17
-6.85
-7.67
-8.72
-10.04
-11.53
-13.07
-14.52
-15.76
-16.61
-16.91
-16.55
-15.50
-13.97
-12.21
-10.52
-9.09
-8.02
-7.27
-6.83
-6.63
-6.54
-6.35
-5.84
-4.87
-3.53
-2.01
-0.63
0.45
1.24
1.96
2.85
4.02
5.42
6.68
7.41
7.40
6.63
5.37
4.09
3.16
2.82
3.12
3.81
4.62
5.26
5.55
5.46
5.05
4.36
3.47
2.46
1.39
0.41
-0.30
-0.58
-0.38
0.26
1.07
1.77
2.06
1.80
1.10
0.24
-0.53
-1.00
-1.15
-1.16
-1.22
-1.51
-2.19
-3.29
-4.75
-6.44
-8.18
-9.82
-11.32
-12.76
-14.29
-16.00
-17.76
-19.28
-20.25
-20.41
-19.75
-18.42
-16.64
-14.54
-12.24
-9.83
-7.41
-5.18
-3.29
-1.82
-0.71
0.19
1.04
1.90
2.74
3.46
3.98
4.30
4.49
4.66
4.93
5.46
6.24
7.28
8.46
9.68
10.87
11.99
12.93
13.53
13.63
13.12
12.07
10.76
9.46
8.40
7.66
7.12
6.63
6.13
5.66
5.32
5.18
5.18
5.24
5.25
5.06
4.62
3.85
2.81
1.70
0.70
0.03
-0.23
-0.20
-0.12
-0.20
-0.53
-1.10
-1.79
-2.54
-3.36
-4.29
-5.33
-6.45
-7.60
-8.75
-9.94
-11.31
-12.87
-14.65
-16.41
-17.90
-18.84
-19.02
-18.40
-17.02
-15.05
-12.66
-10.04
-7.34
-4.78
-2.48
-0.57
0.92
2.10
3.09
4.05
5.02
5.97
6.78
7.34
7.69
7.95
8.25
8.64
9.14
9.65
10.04
10.31
10.53
10.87
11.45
12.31
13.40
14.59
15.68
16.48
16.86
16.77
16.35
15.81
15.40
15.23
15.26
15.31
15.19
14.87
14.39
13.84
13.19
12.31
10.97
9.11
6.88
4.62
2.71
1.35
0.49
-0.01
-0.40
-0.84
-1.40
-2.09
-2.82
-3.53
-4.14
-4.63
-5.04
-5.46
-6.02
-6.82
-7.91
-9.26
-10.81
-12.41
-13.83
-14.82
-15.11
-14.56
-13.26
-11.46
-9.48
-7.63
-6.12
-5.01
-4.20
-3.49
-2.68
-1.57
-0.14
1.48
2.99
4.16
4.86
5.11
4.99
4.58
3.87
2.85
1.62
0.43
-0.42
-0.74
-0.51
0.07
0.74
1.28
1.61
1.70
1.59
1.40
1.18
0.98
0.93
1.06
1.37
1.79
2.22
2.61
2.94
3.17
3.22
3.03
2.52
1.72
0.77
-0.14
-0.82
-1.24
-1.51
-1.83
-2.38
-3.22
-4.27
-5.33
-6.25
-6.97
-7.51
-7.98
-8.40
-8.71
-8.90
-8.95
-8.91
-8.97
-9.27
-9.81
-10.45
-10.90
-10.95
-10.61
-10.09
-9.62
-9.44
-9.55
-9.69
-9.56
-8.91
-7.72
-6.17
-4.51
-2.98
-1.69
-0.63
0.34
1.33
2.44
3.65
4.91
6.10
7.04
7.60
7.78
7.74
7.68
7.73
7.92
8.09
8.00
7.48
6.49
5.20
3.94
3.00
2.53
2.49
2.65
2.73
2.55
2.05
1.38
0.67
0.02
-0.58
-1.17
-1.78
-2.35
-2.76
-2.88
-2.77
-2.64
-2.74
-3.27
-4.36
-5.92
-7.77
-9.61
-11.16
-12.17
-12.53
-12.27
-11.62
-10.97
-10.68
-11.04
-12.08
-13.62
-15.31
-16.69
-17.34
-16.93
-15.47
-13.16
-10.43
-7.74
-5.42
-3.53
-2.01
-0.66
0.68
2.04
3.40
4.71
5.95
7.13
8.25
9.26
10.08
10.75
11.35
12.03
12.84
13.74
14.53
14.98
14.93
14.35
13.39
12.24
11.12
10.22
9.60
9.33
9.33
9.48
9.60
9.56
9.21
8.58
7.77
6.93
6.17
5.63
5.32
5.11
4.82
4.23
3.19
1.80
0.36
-0.72
-1.09
-0.74
0.05
0.84
1.23
1.13
0.70
0.24
-0.01
-0.04
0.04
0.02
-0.22
-0.68
-1.25
-1.76
-2.16
-2.46
-2.86
-3.65
-5.03
-7.01
-9.36
-11.61
-13.26
-13.93
-13.55
-12.34
-10.73
-9.09
-7.69
-6.57
-5.56
-4.42
-2.96
-1.23
0.63
2.35
3.72
4.63
5.08
5.20
5.09
4.88
4.68
4.62
4.83
5.37
6.16
7.09
7.98
8.72
9.29
9.70
10.02
10.31
10.54
10.74
10.94
11.15
11.33
11.34
11.03
10.30
9.14
7.64
5.97
4.29
2.77
1.47
0.45
-0.30
-0.80
-1.10
-1.25
-1.27
-1.22
-1.14
-1.10
-1.06
-1.00
-0.82
-0.48
-0.12
0.10
-0.16
-1.15
-2.94
-5.44
-8.46
-11.78
-15.22
-18.65
-21.86
-24.68
-26.97
-28.74
-30.07
-31.11
-31.94
-32.44
-32.45
-31.80
-30.48
-28.65
-26.51
-24.23
-21.79
-19.03
-15.80
-12.05
-7.95
-3.87
-0.20
2.74
4.83
6.22
7.20
8.10
9.07
10.14
11.12
11.86
12.34
12.66
13.06
13.67
14.52
15.41
16.16
16.59
16.65
16.45
16.11
15.71
15.18
14.36
13.09
11.38
9.47
7.80
6.83
6.92
8.10
10.03
12.23
14.23
15.71
16.67
17.19
17.42
17.36
16.97
16.22
15.19
14.07
13.11
12.48
12.15
12.01
11.81
11.38
10.64
9.64
8.59
7.70
7.08
6.79
6.76
6.85
6.97
7.06
7.11
7.16
7.21
7.27
7.33
7.39
7.50
7.65
7.83
7.91
7.75
7.25
6.30
4.98
3.46
1.94
0.65
-0.34
-1.12
-1.93
-3.01
-4.43
-5.98
-7.27
-7.79
-7.17
-5.31
-2.42
1.14
4.90
8.42
11.37
13.53
14.85
15.42
15.45
15.11
14.43
13.30
11.56
9.18
6.33
3.39
0.75
-1.38
-3.07
-4.64
-6.38
-8.43
-10.69
-12.81
-14.47
-15.64
-16.72
-18.46
-21.72
-27.02
-34.25
-42.66
-51.25
-59.33
-66.94
-74.87
-84.15
-95.49
-108.77
-123.11
-137.38
-150.65
-162.56
-173.04
-181.81
-188.00
-190.25
-187.17
-177.98
-162.97
-143.40
-121.10
-97.95
-75.51
-54.73
-35.84
-18.26
-0.48
19.57
44.22
75.34
113.64
158.36
207.05
255.98
300.66
336.76
360.99
371.88
370.06
358.02
339.33
317.51
295.22
273.68
252.66
230.86
206.47
177.85
144.21
106.08
65.37
25.07
-11.52
-41.73
-64.34
-79.89
-90.52
-99.06
-107.95
-118.31
-129.37
-138.77
-143.38
-140.52
-128.79
-108.55
-81.77
-51.54
-21.60
4.34
23.11
32.70
32.78
25.00
12.62
-0.54
-11.45
-19.07
-24.58
-30.63
-39.84
-53.30
-70.10
-87.81
-103.84
-116.66
-126.39
-134.17
-141.17
-147.63
-152.70
-155.19
-154.41
-150.91
-146.18
-142.08
-139.85
-139.75
-141.07
-142.81
-144.10
-144.41
-143.49
-141.06
-136.78
-130.22
-121.15
-109.60
-95.91
-80.70
-64.90
-49.80
-37.05
-28.36
-25.03
-27.37
-34.43
-44.05
-53.52
-60.33
-62.84
-60.60
-54.20
-45.05
-34.85
-25.31
-17.69
-12.61
-10.06
-9.58
-10.47
-11.94
-13.03
-12.36
-8.14
1.47
17.43
38.97
63.32
86.36
104.08
114.04
116.13
112.14
104.54
95.11
84.24
71.13
54.67
34.45
11.35
-12.58
-34.81
-53.05
-65.77
-72.48
-73.48
-69.68
-62.26
-52.31
-40.63
-27.49
-12.66
4.60
25.20
49.92
79.00
111.83
146.65
180.69
210.63
233.34
246.93
251.17
247.63
238.89
227.55
215.16
202.07
187.77
171.78
154.39
136.86
120.99
108.33
99.53
93.93
89.76
84.51
75.74
61.84
42.89
20.79
-1.27
-20.09
-33.90
-43.06
-49.91
-57.73
-69.47
-86.61
-108.66
-133.03
-155.49
-170.90
-174.44
-162.91
-135.87
-95.98
-48.15
2.00
50.02
93.89
134.28
173.56
214.03
255.98
296.67
330.53
350.86
352.04
331.30
289.45
230.32
159.64
84.05
10.85
-52.14
-97.06
-117.38
-109.86
-76.13
-22.91
39.56
100.09
149.39
181.96
196.76
197.08
188.97
179.19
172.86
171.76
173.89
174.74
169.72
156.22
134.78
108.34
80.54
53.85
28.90
4.77
-19.89
-45.84
-72.99
-100.44
-126.98
-151.32
-172.20
-188.41
-198.98
-203.43
-202.06
-195.97
-186.71
-175.99
-165.37
-156.08
-148.94
-144.33
-142.06
-141.39
-141.38
-141.09
-140.10
-138.64
-137.43
-137.20
-138.23
-140.11
-141.71
-141.74
-139.10
-133.38
-124.96
-114.82
-104.18
-94.08
-85.12
-77.38
-70.56
-64.24
-58.06
-51.92
-45.90
-40.32
-35.57
-31.91
-29.47
-28.11
-27.48
-27.13
-26.68
-25.87
-24.68
-23.20
-21.60
-19.98
-18.38
-16.70
-14.75
-12.33
-9.29
-5.64
-1.54
2.71
6.82
10.56
13.92
17.01
19.98
22.90
25.65
27.97
29.57
30.13
29.46
27.53
24.52
20.71
16.57
12.53
8.95
6.05
3.92
2.52
1.76
1.54
1.66
2.00
2.41
2.87
3.45
4.28
5.39
6.65
7.73
8.23
7.90
6.62
4.54
1.98
-0.69
-3.09
-4.98
-6.27
-7.15
-7.98
-9.21
-11.23
-14.04
-17.40
-20.68
-23.16
-24.26
-23.75
-21.74
-18.68
-15.14
-11.64
-8.51
-5.76
-3.17
-0.49
2.49
5.76
9.21
12.55
15.54
17.89
19.41
20.01
19.77
18.97
18.05
17.39
17.16
17.30
17.55
17.69
17.65
17.60
17.81
18.47
19.59
20.98
22.30
23.29
23.78
23.72
23.26
22.63
22.04
21.59
21.25
20.78
19.97
18.77
17.27
15.70
14.36
13.48
13.38
14.39
16.64
19.72
22.47
23.15
20.07
12.55
1.35
-11.36
-22.87
-31.08
-35.20
-35.77
-34.01
-30.99
-27.24
-22.79
-17.65
-12.19
-7.18
-3.47
-1.56
-1.33
-2.13
-3.16
-3.88
-4.25
-4.62
-5.45
-7.02
-9.17
-11.46
-13.33
-14.46
-14.84
-14.75
-14.51
-14.27
-13.95
-13.33
-12.26
-10.68
-8.73
-6.72
-4.90
-3.47
-2.55
-2.15
-2.22
-2.70
-3.47
-4.39
-5.40
-6.43
-7.56
-8.95
-10.81
-13.26
-16.27
-19.60
-22.84
-25.58
-27.60
-28.92
-29.82
-30.59
-31.35
-31.97
-32.25
-31.95
-31.05
-29.74
-28.37
-27.18
-26.29
-25.71
-25.36
-25.23
-25.36
-25.86
-26.83
-28.34
-30.37
-32.81
-35.36
-37.68
-39.39
-40.28
-40.42
-40.02
-39.36
-38.57
-37.60
-36.25
-34.29
-31.50
-27.76
-22.99
-17.26
-10.68
-3.50
3.95
11.34
18.38
24.86
30.61
35.47
39.31
42.00
43.51
43.89
43.21
41.58
39.18
36.20
32.88
29.40
25.86
22.31
18.82
15.59
12.96
11.32
10.88
11.58
13.00
14.64
16.05
17.11
17.92
18.65
19.39
20.01
20.33
20.26
19.83
19.23
18.74
18.56
18.73
19.20
19.81
20.37
20.72
20.68
20.18
19.27
18.15
17.07
16.30
15.95
15.90
15.91
15.60
14.77
13.37
11.56
9.54
7.46
5.35
3.22
1.13
-0.84
-2.52
-3.81
-4.71
-5.32
-5.78
-6.17
-6.50
-6.68
-6.66
-6.52
-6.46
-6.69
-7.27
-8.11
-9.01
-9.77
-10.27
-10.64
-11.07
-11.78
-12.89
-14.23
-15.49
-16.32
-16.52
-16.12
-15.37
-14.56
-13.88
-13.33
-12.71
-11.77
-10.46
-8.91
-7.39
-6.05
-4.85
-3.50
-1.68
0.78
3.77
6.99
10.09
12.76
14.86
16.31
17.04
17.00
16.16
14.56
12.34
9.69
6.81
3.81
0.85
-2.02
-4.72
-7.16
-9.27
-10.91
-11.85
-11.88
-10.82
-8.60
-5.29
-1.17
3.38
7.91
11.93
14.98
16.67
16.71
15.03
11.81
7.55
2.97
-1.02
-3.63
-4.39
-3.24
-0.62
2.77
6.20
9.15
11.48
13.34
15.05
16.88
18.85
20.74
22.16
22.76
22.38
21.15
19.45
17.74
16.49
15.87
15.82
16.07
16.32
16.40
16.26
15.89
15.35
14.61
13.59
12.16
10.29
8.12
5.94
4.04
2.65
1.79
1.38
1.26
1.25
1.36
1.64
2.22
3.15
4.28
5.30
5.83
5.57
4.46
2.77
0.91
-0.67
-1.78
-2.48
-3.09
-3.94
-5.14
-6.52
-7.69
-8.32
-8.25
-7.66
-6.98
-6.70
-7.15
-8.38
-10.10
-11.79
-12.98
-13.35
-12.82
-11.53
-9.66
-7.39
-4.85
-2.09
0.75
3.49
5.95
8.03
9.68
10.94
11.76
12.06
11.80
11.05
10.06
9.12
8.50
8.21
8.11
7.91
7.40
6.57
5.58
4.71
4.20
4.16
4.54
5.14
5.69
5.96
5.88
5.45
4.77
4.01
3.35
2.91
2.82
3.11
3.70
4.42
5.00
5.15
4.70
3.59
1.92
-0.03
-1.86
-3.17
-3.54
-2.75
-0.86
1.80
4.66
7.02
8.37
8.58
7.76
6.36
4.87
3.63
2.72
1.95
0.93
-0.74
-3.23
-6.50
-10.09
-13.41
-15.86
-17.08
-16.96
-15.76
-13.85
-11.66
-9.51
-7.55
-5.77
-4.08
-2.31
-0.37
1.70
3.66
5.20
6.02
6.07
5.52
4.67
3.93
3.45
3.20
3.05
2.88
2.60
2.23
1.82
1.31
0.70
0.04
-0.47
-0.55
0.03
1.26
3.00
4.96
6.82
8.38
9.50
10.07
10.02
9.36
8.13
6.58
4.95
3.43
2.14
1.08
0.21
-0.49
-1.03
-1.43
-1.67
-1.74
-1.64
-1.34
-0.91
-0.55
-0.49
-0.94
-2.00
-3.55
-5.31
-6.86
-7.83
-8.05
-7.65
-7.01
-6.62
-6.88
-7.76
-8.86
-9.48
-9.02
-7.16
-4.18
-0.65
2.73
5.47
7.48
8.92
10.05
11.00
11.76
12.13
11.94
11.10
9.73
8.16
6.79
5.97
5.83
6.24
6.86
7.32
7.38
6.97
6.29
5.52
4.86
4.39
4.05
3.68
3.14
2.39
1.40
0.29
-0.82
-1.80
-2.54
-2.99
-3.09
-2.77
-1.98
-0.81
0.50
1.59
2.13
2.00
1.25
0.07
-1.34
-2.85
-4.35
-5.65
-6.53
-6.81
-6.43
-5.73
-5.16
-5.23
-6.20
-7.96
-10.07
-12.06
-13.53
-14.41
-14.85
-15.15
-15.62
-16.41
-17.42
-18.36
-18.80
-18.40
-16.98
-14.66
-11.73
-8.60
-5.59
-2.88
-0.53
1.41
2.94
4.08
4.83
5.29
5.46
5.30
4.80
3.92
2.73
1.48
0.35
-0.43
-0.75
-0.63
-0.20
0.39
0.94
1.24
1.23
0.96
0.61
0.43
0.62
1.19
2.04
3.03
4.05
5.05
6.02
6.87
7.40
7.41
6.86
5.88
4.82
4.04
3.77
3.91
4.24
4.43
4.18
3.42
2.29
1.12
0.31
0.19
0.74
1.71
2.65
3.04
2.59
1.34
-0.35
-2.00
-3.19
-3.82
-4.13
-4.53
-5.42
-6.88
-8.66
-10.24
-11.14
-11.12
-10.27
-8.93
-7.43
-5.94
-4.38
-2.59
-0.55
1.58
3.51
4.99
5.89
6.27
6.27
6.02
5.60
5.09
4.54
4.04
3.67
3.41
3.29
3.26
3.27
3.25
3.03
2.43
1.37
-0.08
-1.69
-3.12
-4.11
-4.62
-4.71
-4.51
-4.09
-3.46
-2.54
-1.39
-0.15
0.93
1.61
1.81
1.59
1.09
0.42
-0.27
-0.96
-1.61
-2.28
-2.99
-3.74
-4.43
-4.87
-4.86
-4.34
-3.40
-2.32
-1.49
-1.15
-1.30
-1.71
-2.09
-2.24
-2.17
-2.04
-2.02
-2.24
-2.83
-3.80
-5.19
-6.86
-8.50
-9.66
-9.97
-9.25
-7.65
-5.59
-3.55
-1.87
-0.60
0.40
1.37
2.39
3.39
4.17
4.48
4.19
3.32
2.17
1.17
0.72
1.08
2.17
3.67
5.05
5.85
5.75
4.74
3.05
1.04
-0.87
-2.36
-3.32
-3.73
-3.67
-3.20
-2.36
-1.19
0.14
1.42
2.38
2.85
2.79
2.38
1.82
1.30
0.84
0.35
-0.24
-0.99
-1.87
-2.79
-3.65
-4.37
-4.81
-4.85
-4.41
-3.47
-2.24
-1.04
-0.20
0.06
-0.33
-1.21
-2.37
-3.57
-4.67
-5.56
-6.21
-6.68
-7.16
-7.84
-8.93
-10.51
-12.36
-14.08
-15.19
-15.21
-13.97
-11.66
-8.69
-5.61
-2.87
-0.67
0.99
2.21
3.11
3.70
3.96
3.88
3.51
3.00
2.61
2.57
3.00
3.90
5.13
6.49
7.68
8.47
8.69
8.33
7.48
6.31
5.01
3.69
2.48
1.49
0.81
0.54
0.68
1.19
1.89
2.64
3.21
3.48
3.40
2.96
2.26
1.53
0.96
0.67
0.65
0.67
0.51
0.03
-0.68
-1.35
-1.69
-1.52
-0.92
-0.20
0.24
0.07
-0.81
-2.29
-4.10
-5.93
-7.54
-8.70
-9.31
-9.39
-9.07
-8.68
-8.62
-9.23
-10.59
-12.40
-14.07
-14.85
-14.21
-12.01
-8.55
-4.51
-0.57
2.81
5.51
7.70
9.59
11.27
12.63
13.44
13.52
12.86
11.68
10.35
9.19
8.44
8.08
7.96
7.83
7.53
7.02
6.41
5.98
5.85
6.02
6.22
6.13
5.46
4.21
2.62
1.05
-0.23
-1.12
-1.76
-2.33
-2.83
-3.14
-3.04
-2.45
-1.48
-0.46
0.25
0.45
0.11
-0.60
-1.50
-2.47
-3.46
-4.49
-5.56
-6.64
-7.68
-8.64
-9.57
-10.53
-11.61
-12.85
-14.21
-15.51
-16.53
-17.04
-16.95
-16.33
-15.47
-14.81
-14.80
-15.67
-17.35
-19.35
-20.93
-21.38
-20.20
-17.34
-13.27
-8.73
-4.45
-0.87
1.92
4.15
6.09
7.89
9.54
10.83
11.62
11.89
11.74
11.40
11.12
11.04
11.17
11.44
11.72
11.96
12.13
12.21
12.20
12.04
11.70
11.22
10.70
10.37
10.46
11.16
12.46
14.19
16.05
17.71
18.89
19.42
19.19
18.24
16.70
14.77
12.75
10.90
9.36
8.12
7.06
6.05
5.03
4.05
3.18
2.43
1.70
0.85
-0.23
-1.59
-3.17
-4.87
-6.55
-8.06
-9.26
-10.01
-10.31
-10.27
-10.17
-10.42
-11.42
-13.50
-16.69
-20.65
-24.72
-28.04
-29.83
-29.66
-27.65
-24.31
-20.36
-16.33
-12.48
-8.82
-5.26
-1.72
1.74
5.09
8.27
11.20
13.88
16.16
17.89
18.94
19.29
19.04
18.36
17.54
16.78
16.26
16.01
16.01
16.14
16.21
16.11
15.69
14.95
13.94
12.75
11.57
10.57
9.99
9.97
10.58
11.71
13.09
14.34
15.15
15.22
14.46
12.93
10.76
8.18
5.40
2.62
-0.06
-2.55
-4.75
-6.53
-7.74
-8.29
-8.20
-7.66
-6.92
-6.25
-5.83
-5.72
-5.89
-6.28
-6.82
-7.43
-8.09
-8.90
-10.09
-11.95
-14.65
-18.20
-22.24
-26.14
-29.12
-30.45
-29.74
-26.94
-22.36
-16.60
-10.38
-4.35
0.99
5.39
8.81
11.38
13.32
14.75
15.77
16.39
16.69
16.78
16.78
16.76
16.70
16.58
16.31
15.89
15.38
14.85
14.31
13.75
13.18
12.57
12.00
11.46
10.90
10.22
9.45
8.72
8.35
8.71
9.98
12.03
14.36
16.27
17.13
16.66
15.01
12.79
10.73
9.44
9.12
9.52
10.14
10.44
10.06
8.99
7.45
5.73
3.98
2.27
0.49
-1.46
-3.59
-5.83
-8.09
-10.24
-12.20
-13.96
-15.50
-16.88
-18.10
-19.20
-20.28
-21.49
-23.02
-24.98
-27.32
-29.70
-31.63
-32.57
-32.14
-30.30
-27.30
-23.67
-19.99
-16.67
-13.93
-11.77
-10.05
-8.54
-7.13
-5.75
-4.51
-3.56
-2.94
-2.55
-2.15
-1.37
-0.01
1.96
4.28
6.55
8.41
9.64
10.26
10.44
10.38
10.21
10.00
9.76
9.55
9.48
9.72
10.41
11.57
13.04
14.54
15.74
16.38
16.41
15.91
15.07
14.03
12.86
11.55
10.13
8.64
7.17
5.77
4.48
3.30
2.23
1.30
0.55
0.00
-0.35
-0.59
-0.82
-1.15
-1.68
-2.44
-3.45
-4.64
-5.85
-6.89
-7.67
-8.29
-9.13
-10.61
-12.97
-16.10
-19.49
-22.23
-23.52
-22.84
-20.25
-16.28
-11.69
-7.13
-3.04
0.40
3.26
5.63
7.56
9.05
10.05
10.48
10.36
9.85
9.12
8.47
8.11
8.20
8.80
9.78
10.91
11.95
12.66
12.90
12.72
12.25
11.65
11.11
10.66
10.35
10.22
10.33
10.76
11.47
12.21
12.65
12.49
11.57
10.08
8.31
6.64
5.34
4.46
3.91
3.48
3.04
2.46
1.73
0.86
-0.03
-0.76
-1.22
-1.35
-1.23
-0.98
-0.82
-0.94
-1.44
-2.35
-3.54
-4.84
-6.00
-6.90
-7.53
-8.09
-8.85
-10.13
-12.16
-15.02
-18.61
-22.58
-26.43
-29.59
-31.48
-31.75
-30.32
-27.40
-23.42
-18.89
-14.23
-9.75
-5.74
-2.34
0.39
2.50
4.09
5.36
6.39
7.26
7.99
8.56
9.07
9.57
10.16
10.83
11.55
12.23
12.77
13.10
13.23
13.23
13.18
13.18
13.28
13.43
13.49
13.25
12.60
11.59
10.46
9.51
8.86
8.46
8.03
7.24
5.90
4.17
2.44
1.13
0.53
0.56
0.90
1.16
1.10
0.67
0.19
-0.07
0.10
0.67
1.40
1.91
1.87
1.17
-0.13
-1.81
-3.59
-5.26
-6.66
-7.75
-8.58
-9.33
-10.20
-11.42
-13.17
-15.51
-18.28
-21.05
-23.29
-24.41
-23.98
-21.90
-18.40
-14.01
-9.40
-5.20
-1.68
1.16
3.61
6.02
8.56
11.14
13.46
15.18
16.08
16.25
15.98
15.59
15.31
15.17
15.07
14.91
14.68
14.43
14.27
14.19
14.04
13.49
12.18
9.89
6.79
3.39
0.42
-1.49
-2.06
-1.46
-0.18
1.16
2.13
2.58
2.64
2.41
1.95
1.09
-0.28
-2.19
-4.44
-6.70
-8.63
-9.98
-10.64
-10.70
-10.36
-9.86
-9.52
-9.54
-10.05
-11.05
-12.42
-13.98
-15.57
-17.12
-18.61
-20.11
-21.67
-23.29
-25.02
-26.91
-28.96
-31.11
-33.08
-34.38
-34.46
-32.88
-29.54
-24.77
-19.21
-13.60
-8.48
-4.03
-0.08
3.61
7.16
10.43
13.10
14.87
15.57
15.31
14.43
13.38
12.53
12.14
12.31
12.95
13.81
14.59
15.00
14.80
13.93
12.49
10.69
8.86
7.28
6.09
5.29
4.68
3.94
2.86
1.38
-0.31
-1.92
-3.18
-3.98
-4.49
-5.11
-6.33
-8.52
-11.72
-15.54
-19.07
-21.05
-20.14
-15.43
-6.87
4.60
17.20
28.91
38.00
43.56
45.58
44.63
41.50
36.76
30.79
23.90
16.44
8.87
1.70
-4.73
-10.26
-14.82
-18.40
-20.87
-22.03
-21.73
-20.00
-17.09
-13.38
-9.38
-5.50
-2.12
0.61
2.67
4.23
5.48
6.54
7.44
8.10
8.46
8.58
8.64
8.87
9.40
10.20
11.04
11.65
11.82
11.50
10.76
9.67
8.29
6.59
4.63
2.55
0.62
-0.83
-1.60
-1.56
-0.90
0.13
1.20
2.00
2.38
2.26
1.76
1.06
0.44
0.04
-0.08
-0.02
0.02
-0.14
-0.61
-1.39
-2.36
-3.37
-4.33
-5.21
-6.14
-7.29
-8.72
-10.38
-12.07
-13.52
-14.47
-14.84
-14.73
-14.46
-14.40
-14.82
-15.73
-16.85
-17.72
-17.83
-16.85
-14.80
-12.00
-8.93
-6.03
-3.53
-1.46
0.24
1.69
3.01
4.25
5.48
6.65
7.65
8.26
8.37
7.95
7.20
6.42
5.89
5.74
5.90
6.15
6.22
5.99
5.45
4.77
4.13
3.74
3.71
4.02
4.51
5.00
5.37
5.59
5.72
5.80
5.75
5.43
4.76
3.75
2.65
1.81
1.45
1.63
2.15
2.70
3.12
3.32
3.40
3.45
3.55
3.63
3.64
3.53
3.28
2.90
2.38
1.69
0.74
-0.50
-2.06
-3.85
-5.78
-7.75
-9.70
-11.68
-13.88
-16.50
-19.50
-22.53
-24.92
-25.93
-25.12
-22.51
-18.65
-14.36
-10.40
-7.22
-4.93
-3.38
-2.35
-1.67
-1.26
-1.07
-1.06
-1.18
-1.34
-1.47
-1.45
-1.19
-0.70
-0.03
0.67
1.24
1.60
1.73
1.69
1.54
1.30
0.97
0.59
0.28
0.22
0.58
1.48
2.85
4.50
6.11
7.36
8.04
8.10
7.65
6.91
6.13
5.46
4.92
4.49
4.05
3.56
3.00
2.44
2.01
1.83
1.97
2.36
2.86
3.21
3.18
2.66
1.68
0.45
-0.81
-1.93
-2.91
-3.79
-4.76
-5.98
-7.50
-9.21
-10.87
-12.10
-12.59
-12.16
-10.82
-8.82
-6.44
-3.95
-1.49
0.87
3.06
4.97
6.42
7.30
7.57
7.30
6.63
5.65
4.43
3.06
1.76
0.85
0.70
1.46
3.05
5.15
7.28
9.10
10.45
11.34
11.89
12.20
12.27
12.09
11.64
10.94
10.06
9.03
7.91
6.76
5.64
4.65
3.84
3.24
2.81
2.51
2.35
2.29
2.27
2.20
1.95
1.45
0.70
-0.14
-0.85
-1.21
-1.18
-0.94
-0.86
-1.35
-2.61
-4.60
-6.90
-8.99
-10.45
-11.16
-11.40
-11.76
-12.84
-14.91
-17.77
-20.80
-23.25
-24.40
-23.93
-21.89
-18.70
-14.90
-11.05
-7.43
-4.25
-1.53
0.79
2.79
4.54
6.11
7.52
8.77
9.88
10.85
11.65
12.28
12.77
13.13
13.50
13.91
14.43
14.94
15.33
15.41
15.06
14.24
13.12
11.96
10.98
10.27
9.80
9.44
9.12
8.84
8.60
8.46
8.35
8.16
7.74
7.01
5.99
4.80
3.56
2.34
1.13
-0.10
-1.40
-2.74
-4.05
-5.26
-6.24
-6.96
-7.40
-7.66
-7.88
-8.16
-8.57
-9.15
-9.79
-10.46
-11.21
-12.12
-13.37
-15.10
-17.32
-19.88
-22.48
-24.67
-26.01
-26.20
-25.17
-23.13
-20.56
-17.99
-15.87
-14.33
-13.20
-12.20
-11.06
-9.78
-8.55
-7.61
-7.04
-6.72
-6.40
-5.79
-4.83
-3.56
-2.16
-0.73
0.75
2.34
4.05
5.72
7.14
8.11
8.61
8.83
9.02
9.47
10.27
11.34
12.49
13.50
14.24
14.72
15.01
15.16
15.15
14.91
14.35
13.47
12.39
11.29
10.31
9.49
8.76
8.00
7.09
6.06
5.02
4.11
3.37
2.69
1.87
0.72
-0.81
-2.56
-4.26
-5.58
-6.35
-6.58
-6.57
-6.69
-7.30
-8.52
-10.12
-11.69
-12.67
-12.57
-11.25
-8.83
-5.73
-2.44
0.58
3.13
5.17
6.74
7.90
8.59
8.71
8.19
7.08
5.57
3.96
2.58
1.61
1.09
0.93
1.01
1.23
1.54
1.94
2.39
2.89
3.35
3.71
3.87
3.84
3.66
3.49
3.52
3.88
4.59
5.43
6.08
6.26
5.90
5.17
4.36
3.71
3.25
2.85
2.38
1.84
1.36
1.06
1.02
1.08
1.03
0.62
-0.26
-1.57
-3.15
-4.79
-6.34
-7.66
-8.70
-9.48
-10.04
-10.49
-10.94
-11.44
-12.03
-12.80
-13.83
-15.13
-16.52
-17.69
-18.17
-17.64
-16.05
-13.63
-10.86
-8.26
-6.15
-4.56
-3.29
-2.01
-0.46
1.46
3.67
5.86
7.60
8.56
8.62
8.05
7.35
7.07
7.52
8.69
10.19
11.58
12.49
12.80
12.58
12.01
11.22
10.32
9.36
8.44
7.71
7.37
7.54
8.31
9.61
11.16
12.55
13.38
13.38
12.58
11.34
10.04
9.00
8.28
7.66
6.82
5.62
4.10
2.45
0.94
-0.29
-1.17
-1.81
-2.34
-2.93
-3.77
-4.98
-6.60
-8.50
-10.47
-12.24
-13.62
-14.61
-15.26
-15.74
-16.13
-16.53
-17.00
-17.63
-18.46
-19.44
-20.29
-20.65
-20.15
-18.66
-16.42
-13.89
-11.59
-9.90
-8.83
-8.19
-7.68
-7.15
-6.63
-6.33
-6.39
-6.75
-7.13
-7.13
-6.50
-5.21
-3.54
-1.81
-0.27
1.10
2.46
3.96
5.66
7.37
8.86
9.89
10.48
10.71
10.83
11.00
11.23
11.48
11.65
11.66
11.49
11.18
10.81
10.47
10.21
10.01
9.85
9.64
9.32
8.86
8.26
7.52
6.69
5.80
4.87
3.91
2.90
1.80
0.61
-0.63
-1.88
-3.02
-3.97
-4.75
-5.40
-6.08
-6.94
-8.17
-9.84
-11.95
-14.30
-16.49
-17.92
-18.00
-16.44
-13.31
-9.20
-4.84
-0.88
2.41
5.07
7.39
9.54
11.51
13.08
13.91
13.83
12.87
11.34
9.70
8.37
7.65
7.53
7.87
8.39
8.91
9.29
9.53
9.65
9.59
9.23
8.53
7.53
6.45
5.54
4.95
4.69
4.63
4.58
4.43
4.14
3.71
3.13
2.45
1.76
1.18
0.82
0.67
0.62
0.54
0.36
0.14
0.06
0.26
0.70
1.21
1.46
1.21
0.33
-1.13
-3.03
-5.12
-7.17
-8.97
-10.35
-11.31
-12.03
-12.74
-13.76
-15.26
-17.16
-19.14
-20.75
-21.60
-21.45
-20.36
-18.52
-16.25
-13.82
-11.44
-9.18
-7.05
-4.99
-2.96
-0.96
0.98
2.77
4.29
5.46
6.22
6.71
7.16
7.82
8.86
10.36
12.17
14.09
15.86
17.22
18.11
18.46
18.34
17.80
17.00
16.06
15.11
14.26
13.59
13.18
12.99
12.96
12.91
12.69
12.14
11.24
10.09
8.89
7.86
7.09
6.58
6.09
5.36
4.18
2.57
0.73
-0.99
-2.30
-3.11
-3.51
-3.77
-4.17
-4.81
-5.64
-6.49
-7.21
-7.72
-8.14
-8.64
-9.44
-10.65
-12.26
-14.14
-16.11
-17.98
-19.54
-20.59
-20.87
-20.22
-18.59
-16.11
-13.15
-10.12
-7.48
-5.52
-4.37
-3.95
-4.20
-4.95
-6.05
-7.36
-8.66
-9.81
-10.63
-11.00
-10.87
-10.24
-9.10
-7.53
-5.71
-3.82
-2.10
-0.78
0.07
0.41
0.35
0.08
-0.21
-0.35
-0.18
0.40
1.35
2.58
3.86
4.99
5.81
6.28
6.50
6.64
6.85
7.23
7.74
8.24
8.55
8.49
8.00
7.24
6.47
5.96
5.89
6.18
6.51
6.50
5.83
4.39
2.37
0.15
-1.87
-3.32
-4.07
-4.22
-4.01
-3.81
-3.92
-4.53
-5.62
-7.00
-8.35
-9.28
-9.51
-8.87
-7.40
-5.32
-2.99
-0.80
0.99
2.28
3.15
3.86
4.56
5.37
6.22
6.93
7.32
7.29
6.97
6.66
6.73
7.38
8.51
9.77
10.72
11.07
10.76
10.02
9.16
8.40
7.79
7.21
6.52
5.68
4.78
3.98
3.45
3.33
3.60
4.21
4.95
5.54
5.77
5.55
4.97
4.26
3.63
3.16
2.73
2.18
1.35
0.32
-0.80
-1.87
-2.88
-3.92
-5.09
-6.37
-7.55
-8.38
-8.59
-8.21
-7.41
-6.46
-5.65
-5.27
-5.55
-6.68
-8.69
-11.40
-14.38
-17.00
-18.68
-19.10
-18.22
-16.35
-13.93
-11.46
-9.25
-7.47
-5.97
-4.55
-3.03
-1.25
0.77
2.89
4.89
6.55
7.64
8.14
8.12
7.77
7.45
7.45
7.88
8.61
9.29
9.54
9.19
8.29
7.09
5.89
4.83
3.90
3.04
2.29
1.82
1.91
2.66
3.90
5.28
6.32
6.70
6.37
5.53
4.50
3.60
2.94
2.48
2.12
1.71
1.21
0.64
0.13
-0.20
-0.20
0.11
0.63
1.08
1.17
0.70
-0.35
-1.83
-3.48
-4.96
-6.06
-6.67
-6.83
-6.70
-6.41
-6.08
-5.85
-5.81
-5.91
-6.03
-5.91
-5.27
-3.97
-2.05
0.28
2.60
4.48
5.64
5.91
5.37
4.26
2.87
1.59
0.68
0.28
0.29
0.52
0.66
0.55
0.18
-0.29
-0.67
-0.80
-0.62
-0.13
0.59
1.50
2.51
3.46
4.10
4.16
3.51
2.16
0.32
-1.69
-3.56
-5.05
-6.02
-6.48
-6.53
-6.37
-6.23
-6.30
-6.58
-6.94
-7.12
-6.94
-6.42
-5.78
-5.40
-5.59
-6.51
-8.06
-10.04
-12.18
-14.30
-16.24
-17.90
-19.14
-19.85
-19.92
-19.33
-18.25
-16.97
-15.86
-15.26
-15.26
-15.63
-15.85
-15.32
-13.57
-10.56
-6.59
-2.24
1.88
5.43
8.26
10.52
12.41
14.10
15.62
16.90
17.84
18.32
18.34
17.93
17.26
16.49
15.72
14.99
14.30
13.62
12.96
12.37
11.88
11.49
11.14
10.79
10.37
9.94
9.60
9.50
9.68
10.08
10.54
10.84
10.77
10.32
9.51
8.47
7.28
6.00
4.63
3.22
1.85
0.56
-0.54
-1.47
-2.25
-2.96
-3.66
-4.32
-4.91
-5.34
-5.57
-5.59
-5.50
-5.53
-5.97
-7.07
-8.93
-11.37
-13.87
-15.83
-16.72
-16.33
-14.88
-12.76
-10.45
-8.17
-5.98
-3.77
-1.51
0.67
2.57
3.97
4.87
5.39
5.72
5.94
5.96
5.61
4.77
3.53
2.20
1.21
0.83
1.09
1.81
2.64
3.32
3.71
3.89
3.99
4.13
4.33
4.54
4.71
4.88
5.14
5.60
6.27
7.03
7.60
7.72
7.18
6.00
4.37
2.62
1.05
-0.09
-0.72
-0.96
-1.02
-1.14
-1.51
-2.15
-2.91
-3.58
-3.94
-3.97
-3.78
-3.54
-3.49
-3.79
-4.57
-5.90
-7.82
-10.11
-12.40
-14.11
-14.67
-13.76
-11.47
-8.28
-4.83
-1.66
0.97
3.03
4.62
5.83
6.72
7.31
7.63
7.78
7.84
7.90
8.06
8.39
8.97
9.83
10.89
11.94
12.63
12.72
12.10
10.85
9.31
7.80
6.61
5.89
5.68
5.85
6.24
6.73
7.23
7.70
8.10
8.33
8.36
8.16
7.75
7.24
6.82
6.56
6.40
6.21
5.80
5.06
4.05
2.93
1.84
0.88
-0.00
-0.91
-1.88
-2.96
-4.05
-5.05
-5.85
-6.42
-6.76
-6.99
-7.25
-7.75
-8.73
-10.32
-12.45
-14.84
-17.07
-18.67
-19.37
-19.07
-17.93
-16.28
-14.46
-12.65
-11.01
-9.57
-8.28
-7.17
-6.29
-5.68
-5.45
-5.63
-6.20
-7.11
-8.23
-9.32
-10.16
-10.52
-10.29
-9.53
-8.43
-7.25
-6.23
-5.43
-4.73
-3.97
-3.00
-1.70
-0.18
1.48
3.12
4.62
5.90
6.91
7.58
7.97
8.16
8.16
7.97
7.54
6.85
5.99
5.20
4.66
4.54
4.79
5.15
5.33
5.13
4.49
3.52
2.47
1.52
0.78
0.27
-0.21
-0.87
-1.89
-3.29
-4.90
-6.32
-7.15
-7.06
-5.94
-3.96
-1.46
1.13
3.42
5.23
6.51
7.42
8.17
8.95
9.79
10.58
11.06
11.06
10.55
9.73
8.87
8.24
8.00
8.11
8.52
9.06
9.63
10.16
10.56
10.74
10.66
10.37
9.96
9.60
9.39
9.37
9.51
9.71
9.84
9.82
9.56
9.05
8.33
7.47
6.53
5.55
4.54
3.49
2.40
1.25
0.06
-1.20
-2.53
-3.98
-5.58
-7.29
-8.98
-10.52
-11.79
-12.71
-13.34
-13.72
-13.88
-13.87
-13.62
-13.16
-12.64
-12.30
-12.42
-13.13
-14.34
-15.66
-16.62
-16.88
-16.33
-15.11
-13.52
-11.79
-10.00
-8.05
-5.83
-3.28
-0.49
2.31
4.81
6.74
7.93
8.37
8.24
7.87
7.61
7.67
7.96
8.17
7.98
7.29
6.39
5.83
6.12
7.40
9.31
11.26
12.72
13.49
13.73
13.77
13.78
13.72
13.42
12.71
11.60
10.31
9.09
8.16
7.57
7.24
7.00
6.70
6.22
5.54
4.71
3.76
2.81
1.99
1.39
1.03
0.87
0.71
0.27
-0.70
-2.39
-4.70
-7.32
-9.86
-11.90
-13.17
-13.61
-13.34
-12.59
-11.78
-11.34
-11.66
-12.83
-14.57
-16.26
-17.18
-16.84
-15.14
-12.48
-9.53
-6.94
-5.10
-3.98
-3.31
-2.79
-2.20
-1.52
-0.86
-0.39
-0.18
-0.20
-0.27
-0.25
-0.03
0.38
0.84
1.16
1.26
1.14
0.88
0.58
0.28
-0.02
-0.39
-0.83
-1.32
-1.77
-2.06
-2.20
-2.23
-2.32
-2.59
-3.07
-3.67
-4.27
-4.67
-4.76
-4.56
-4.21
-3.89
-3.68
-3.57
-3.40
-3.04
-2.39
-1.51
-0.52
0.42
1.22
1.83
2.21
2.35
2.23
1.82
1.15
0.22
-0.84
-1.93
-2.84
-3.44
-3.64
-3.60
-3.58
-3.92
-4.80
-6.10
-7.45
-8.38
-8.49
-7.66
-5.97
-3.71
-1.15
1.50
4.10
6.52
8.63
10.27
11.31
11.70
11.46
10.73
9.75
8.81
8.18
7.97
8.11
8.43
8.67
8.68
8.48
8.16
7.87
7.67
7.49
7.23
6.86
6.47
6.22
6.28
6.71
7.37
8.02
8.34
8.08
7.17
5.77
4.13
2.58
1.37
0.54
-0.02
-0.55
-1.18
-1.93
-2.62
-2.99
-2.87
-2.23
-1.29
-0.37
0.21
0.28
-0.15
-0.92
-1.79
-2.59
-3.26
-3.81
-4.30
-4.86
-5.55
-6.52
-7.87
-9.67
-11.87
-14.23
-16.28
-17.41
-17.11
-15.22
-12.04
-8.30
-4.84
-2.29
-0.78
-0.09
0.27
0.77
1.49
2.32
2.98
3.18
2.97
2.59
2.31
2.39
2.92
3.71
4.52
5.14
5.48
5.64
5.71
5.73
5.64
5.38
4.94
4.49
4.24
4.37
4.93
5.78
6.71
7.48
7.89
7.82
7.20
6.11
4.64
3.02
1.47
0.12
-0.92
-1.66
-2.10
-2.22
-2.01
-1.59
-1.00
-0.37
0.26
0.97
1.83
2.82
3.74
4.23
3.95
2.84
1.15
-0.67
-2.19
-3.16
-3.60
-3.72
-3.86
-4.37
-5.50
-7.26
-9.43
-11.51
-12.92
-13.13
-11.95
-9.58
-6.49
-3.29
-0.38
1.91
3.51
4.39
4.56
4.11
3.20
2.06
0.90
-0.05
-0.74
-1.14
-1.37
-1.56
-1.81
-2.15
-2.47
-2.61
-2.38
-1.76
-0.85
0.10
0.79
1.08
0.90
0.29
-0.66
-1.83
-3.11
-4.33
-5.35
-6.13
-6.65
-6.98
-7.24
-7.51
-7.86
-8.32
-8.92
-9.66
-10.47
-11.17
-11.53
-11.33
-10.52
-9.18
-7.54
-5.84
-4.34
-3.20
-2.51
-2.33
-2.61
-3.20
-3.98
-4.74
-5.34
-5.69
-5.84
-5.86
-5.92
-6.09
-6.35
-6.57
-6.55
-6.01
-4.84
-3.17
-1.28
0.42
1.69
2.48
3.03
3.60
4.39
5.38
6.39
7.24
7.80
8.10
8.22
8.28
8.35
8.45
8.58
8.70
8.76
8.66
8.28
7.50
6.34
4.92
3.42
2.07
1.03
0.42
0.28
0.65
1.54
2.92
4.68
6.61
8.50
10.11
11.31
12.08
12.48
12.54
12.30
11.78
11.02
10.14
9.29
8.62
8.17
7.85
7.45
6.87
6.02
5.01
4.04
3.23
2.52
1.76
0.80
-0.39
-1.62
-2.65
-3.33
-3.69
-4.05
-4.83
-6.37
-8.72
-11.59
-14.42
-16.64
-17.88
-18.03
-17.24
-15.83
-14.04
-12.01
-9.79
-7.38
-4.95
-2.73
-0.97
0.20
0.87
1.35
1.93
2.78
3.98
5.39
6.83
8.18
9.34
10.22
10.79
10.88
10.46
9.57
8.42
7.30
6.51
6.16
6.24
6.61
7.01
7.29
7.43
7.51
7.63
7.83
8.01
8.01
7.66
6.80
5.42
3.66
1.68
-0.30
-2.05
-3.36
-4.06
-4.05
-3.39
-2.31
-1.04
0.10
1.00
1.70
2.30
2.91
3.52
4.01
4.24
4.13
3.70
3.09
2.39
1.55
0.39
-1.40
-3.97
-7.22
-10.73
-13.89
-16.09
-17.02
-16.71
-15.44
-13.61
-11.54
-9.32
-6.93
-4.37
-1.71
0.76
2.70
3.85
4.10
3.59
2.64
1.67
1.03
0.96
1.50
2.49
3.63
4.62
5.30
5.64
5.66
5.45
5.04
4.43
3.58
2.59
1.62
0.84
0.39
0.22
0.14
-0.11
-0.70
-1.73
-3.10
-4.61
-6.01
-7.14
-7.95
-8.55
-9.11
-9.73
-10.38
-10.87
-11.03
-10.82
-10.35
-9.83
-9.46
-9.37
-9.55
-9.97
-10.61
-11.44
-12.40
-13.25
-13.75
-13.75
-13.34
-12.84
-12.68
-13.15
-14.17
-15.34
-16.09
-15.94
-14.70
-12.45
-9.49
-6.17
-2.84
0.35
3.30
6.01
8.48
10.65
12.47
13.84
14.74
15.14
15.13
14.80
14.35
13.90
13.56
13.37
13.19
12.81
12.01
10.65
8.78
6.69
4.65
2.92
1.54
0.36
-0.82
-2.23
-3.88
-5.78
-7.81
-9.91
-12.10
-14.39
-16.82
-19.35
-21.93
-24.42
-26.73
-28.74
-30.32
-31.38
-31.75
-31.35
-30.06
-28.00
-25.55
-23.34
-22.04
-22.00
-23.02
-24.21
-24.26
-21.84
-16.32
-8.01
1.84
11.48
19.29
24.27
26.39
26.34
25.21
23.93
23.00
22.43
21.89
21.06
19.76
18.06
16.09
14.02
11.86
9.51
6.81
3.67
0.11
-3.76
-7.70
-11.47
-14.89
-17.82
-20.26
-22.29
-24.07
-25.61
-26.87
-27.68
-27.88
-27.41
-26.26
-24.25
-20.93
-15.48
-7.00
5.14
20.89
39.44
59.38
79.21
97.61
113.52
126.18
134.98
139.53
139.67
135.45
126.99
114.30
97.27
75.91
50.86
23.72
-3.04
-26.57
-44.31
-54.72
-57.45
-53.36
-44.26
-32.64
-21.19
-12.24
-7.17
-5.92
-7.24
-9.29
-10.61
-10.67
-9.95
-9.38
-9.50
-10.03
-9.98
-8.34
-4.65
0.68
6.54
11.61
14.84
15.64
13.88
9.79
3.92
-2.83
-9.23
-13.87
-15.49
-13.33
-7.42
1.49
12.13
23.10
33.15
41.37
47.21
50.38
50.88
48.96
45.12
40.13
34.77
29.74
25.52
22.42
20.58
19.97
20.40
21.44
22.56
23.14
22.74
21.16
18.52
15.11
11.25
7.19
3.11
-0.78
-4.26
-7.05
-9.00
-10.18
-10.98
-12.00
-13.90
-17.15
-21.92
-28.06
-35.11
-42.50
-49.62
-55.83
-60.53
-63.20
-63.51
-61.45
-57.41
-51.99
-45.90
-39.74
-33.81
-28.23
-22.98
-18.01
-13.38
-9.22
-5.65
-2.78
-0.69
0.73
1.57
2.05
2.39
2.73
3.17
3.73
4.36
4.98
5.59
6.05
6.24
5.99
5.14
3.65
1.57
-0.93
-3.52
-5.89
-7.72
-8.75
-8.85
-8.12
-6.84
-5.50
-4.61
-4.56
-5.47
-7.19
-9.39
-11.80
-14.19
-16.37
-18.22
-19.65
-20.63
-21.36
-22.15
-23.36
-25.17
-27.46
-29.71
-31.33
-31.81
-31.06
-29.36
-27.21
-25.13
-23.37
-21.85
-20.23
-18.21
-15.62
-12.59
-9.51
-6.73
-4.46
-2.64
-0.99
0.67
2.40
4.11
5.59
6.75
7.69
8.63
9.81
11.31
13.06
14.82
16.33
17.39
17.94
18.11
18.07
17.96
17.77
17.35
16.56
15.41
14.05
12.86
12.20
12.16
12.45
12.47
11.56
9.21
5.31
0.03
-6.21
-12.88
-19.49
-25.62
-30.93
-35.16
-38.12
-39.72
-39.96
-38.89
-36.62
-33.41
-29.60
-25.60
-21.73
-18.10
-14.62
-11.14
-7.64
-4.30
-1.52
0.35
1.08
0.79
-0.18
-1.38
-2.43
-3.07
-3.23
-2.91
-2.08
-0.83
0.73
2.35
3.72
4.57
4.80
4.57
4.32
4.67
6.13
8.93
12.87
17.41
21.79
25.38
27.74
28.78
28.72
27.90
26.71
25.47
24.44
23.80
23.62
23.85
24.29
24.59
24.34
23.19
20.98
17.86
14.17
10.43
7.13
4.57
2.81
1.64
0.60
-0.82
-3.07
-6.34
-10.44
-14.75
-18.45
-20.72
-21.00
-19.20
-15.66
-11.00
-5.97
-1.19
2.94
6.30
8.92
10.97
12.63
13.96
14.99
15.54
15.50
14.79
13.55
12.04
10.64
9.69
9.38
9.76
10.69
11.94
13.18
14.02
14.09
13.22
11.51
9.35
7.36
5.91
5.09
4.52
3.55
1.58
-1.62
-5.85
-10.46
-14.62
-17.62
-19.03
-18.74
-16.99
-14.12
-10.53
-6.54
-2.41
1.67
5.48
8.76
11.38
13.28
14.57
15.44
15.98
16.16
15.90
15.14
13.90
12.34
10.44
8.03
4.76
0.34
-5.18
-11.24
-16.99
-21.53
-24.24
-24.99
-23.92
-21.28
-17.27
-12.06
-5.89
0.76
7.26
12.96
17.30
20.05
21.28
21.18
19.98
17.82
14.73
10.69
5.87
0.65
-4.37
-8.47
-11.09
-12.00
-11.31
-9.49
-7.13
-4.75
-2.78
-1.41
-0.73
-0.77
-1.53
-2.99
-5.17
-8.00
-11.30
-14.79
-18.06
-20.69
-22.40
-23.18
-23.16
-22.61
-21.78
-20.87
-19.99
-19.24
-18.76
-18.65
-18.97
-19.57
-20.25
-20.68
-20.59
-19.75
-18.05
-15.51
-12.37
-9.07
-6.16
-4.18
-3.45
-3.89
-5.05
-6.25
-6.84
-6.43
-4.94
-2.67
-0.08
2.32
4.24
5.53
6.29
6.66
6.72
6.49
5.93
5.02
3.88
2.72
1.80
1.31
1.34
1.75
2.36
2.93
3.19
2.98
2.30
1.25
0.13
-0.75
-1.10
-0.82
0.01
1.20
2.53
3.85
5.04
6.04
6.84
7.47
7.95
8.29
8.50
8.56
8.41
8.04
7.47
6.79
6.08
5.42
4.81
4.23
3.73
3.33
3.07
2.96
2.90
2.77
2.45
1.93
1.26
0.50
-0.36
-1.42
-2.81
-4.69
-7.09
-9.88
-12.69
-15.05
-16.47
-16.66
-15.60
-13.62
-11.29
-9.21
-7.88
-7.43
-7.77
-8.57
-9.52
-10.39
-11.17
-11.97
-12.91
-14.00
-15.07
-15.86
-16.14
-15.84
-15.12
-14.28
-13.55
-12.98
-12.38
-11.48
-10.14
-8.44
-6.70
-5.27
-4.29
-3.64
-2.99
-2.03
-0.62
1.13
2.93
4.49
5.59
6.20
6.39
6.32
6.17
6.01
5.84
5.60
5.17
4.49
3.64
2.77
2.06
1.70
1.71
2.05
2.61
3.33
4.11
4.87
5.52
5.90
5.94
5.63
5.03
4.36
3.92
3.95
4.62
5.94
7.73
9.70
11.59
13.24
14.64
15.88
16.94
17.67
17.84
17.26
16.02
14.45
13.16
12.77
13.66
15.76
18.59
21.37
23.24
23.59
22.17
19.21
15.35
11.39
7.98
5.49
3.95
3.12
2.83
2.94
3.39
4.16
5.10
5.95
6.40
6.19
5.24
3.74
2.03
0.44
-0.77
-1.63
-2.28
-2.91
-3.63
-4.40
-4.98
-5.18
-4.96
-4.43
-3.92
-3.67
-3.83
-4.38
-5.22
-6.26
-7.47
-8.82
-10.10
-11.04
-11.19
-10.22
-8.07
-4.98
-1.45
1.95
4.71
6.60
7.51
7.50
6.62
4.96
2.66
0.06
-2.38
-4.16
-4.81
-4.16
-2.39
0.05
2.51
4.45
5.57
5.88
5.66
5.34
5.35
6.01
7.43
9.51
12.04
14.69
17.13
19.07
20.32
20.67
20.02
18.43
16.13
13.49
11.05
9.17
8.05
7.57
7.30
6.75
5.54
3.47
0.70
-2.45
-5.52
-8.18
-10.26
-11.94
-13.59
-15.66
-18.45
-21.93
-25.73
-29.26
-31.89
-33.19
-32.98
-31.37
-28.72
-25.56
-22.46
-19.93
-18.34
-17.73
-17.83
-18.20
-18.33
-17.95
-17.07
-15.89
-14.67
-13.56
-12.56
-11.63
-10.75
-9.95
-9.33
-8.96
-8.78
-8.63
-8.27
-7.53
-6.47
-5.28
-4.31
-3.83
-3.92
-4.38
-4.80
-4.69
-3.68
-1.65
1.19
4.30
6.93
8.39
8.16
6.14
2.68
-1.56
-5.86
-9.69
-12.98
-16.09
-19.60
-23.98
-29.32
-35.24
-40.91
-45.34
-47.77
-47.77
-45.42
-41.22
-35.90
-30.18
-24.65
-19.63
-15.17
-11.02
-6.70
-1.57
4.87
12.70
21.41
29.74
36.12
38.98
37.43
31.55
22.44
11.88
1.71
-6.67
-12.58
-15.99
-17.36
-17.26
-16.17
-14.39
-12.07
-9.30
-6.22
-2.96
0.34
3.67
7.08
10.67
14.43
18.23
21.83
24.95
27.46
29.30
30.54
31.25
31.47
31.17
30.32
28.90
26.85
24.10
20.69
16.89
13.31
10.80
10.07
11.34
14.14
17.46
20.21
21.69
21.83
21.00
19.70
18.26
16.67
14.80
12.66
10.39
8.25
6.42
4.86
3.41
1.95
0.54
-0.59
-1.07
-0.58
1.06
3.88
7.74
12.30
17.01
21.23
24.28
25.78
25.72
24.42
22.50
20.62
19.30
18.83
19.33
20.68
22.68
24.99
27.19
28.83
29.52
28.95
27.00
23.68
19.13
13.71
7.90
2.21
-2.83
-6.92
-9.93
-11.97
-13.29
-14.22
-14.95
-15.63
-16.33
-16.95
-17.40
-17.58
-17.41
-16.85
-15.92
-14.71
-13.36
-12.10
-11.05
-10.23
-9.52
-8.69
-7.47
-5.77
-3.59
-1.10
1.44
3.82
5.89
7.56
8.84
9.79
10.48
10.98
11.37
11.74
12.22
12.84
13.62
14.51
15.33
15.86
15.96
15.60
14.99
14.52
14.64
15.68
17.82
20.97
24.87
29.09
33.14
36.51
38.83
39.85
39.64
38.51
36.94
35.34
34.01
32.99
32.06
30.96
29.42
27.28
24.51
21.20
17.56
13.89
10.52
7.74
5.76
4.60
4.11
3.94
3.62
2.76
1.17
-0.94
-3.03
-4.45
-4.65
-3.49
-1.28
1.32
3.63
5.14
5.58
4.89
3.13
0.45
-2.89
-6.46
-9.70
-12.16
-13.53
-13.81
-13.23
-12.12
-10.75
-9.14
-7.09
-4.19
-0.00
5.73
12.87
20.86
28.74
35.47
40.39
43.47
45.45
47.62
51.41
57.75
66.63
76.82
85.96
91.14
89.60
79.58
60.83
34.76
4.07
-27.94
-58.06
-83.85
-103.94
-118.07
-126.86
-131.52
-133.41
-133.65
-132.89
-131.24
-128.62
-124.92
-120.40
-115.51
-110.82
-106.60
-102.76
-98.94
-94.71
-90.00
-85.10
-80.72
-77.51
-75.83
-75.52
-75.94
-76.18
-75.21
-72.37
-67.38
-60.53
-52.40
-43.68
-34.74
-25.57
-15.89
-5.32
6.13
18.09
29.86
40.70
49.98
57.37
62.79
66.35
68.51
69.85
71.17
73.14
76.04
79.58
82.99
85.38
86.04
84.74
81.59
76.86
70.75
63.33
54.80
45.45
35.85
26.63
18.30
11.12
5.00
-0.34
-5.37
-10.50
-16.05
-22.10
-28.48
-34.66
-39.91
-43.51
-45.15
-45.03
-43.85
-42.50
-41.75
-41.95
-43.01
-44.49
-45.80
-46.34
-45.71
-43.69
-40.36
-36.00
-31.07
-26.05
-21.36
-17.34
-14.17
-12.05
-11.10
-11.36
-12.69
-14.82
-17.35
-19.89
-22.16
-23.96
-25.17
-25.60
-25.09
-23.52
-20.88
-17.31
-13.04
-8.30
-3.39
1.35
5.49
8.62
10.50
11.22
11.24
11.15
11.55
12.74
14.75
17.31
20.18
23.16
26.15
29.03
31.66
33.78
35.10
35.40
34.67
33.22
31.54
30.18
29.47
29.41
29.62
29.55
28.73
27.08
24.80
22.33
20.08
18.30
17.13
16.52
16.38
16.50
16.53
16.01
14.55
11.94
8.41
4.56
1.19
-0.97
-1.47
-0.33
2.06
5.00
7.68
9.34
9.48
8.04
5.40
2.24
-0.68
-2.75
-3.68
-3.48
-2.40
-0.77
1.09
2.86
4.28
5.16
5.51
5.56
5.72
6.43
7.95
10.18
12.78
15.20
16.98
17.91
18.02
17.61
16.97
16.24
15.39
14.21
12.55
10.34
7.76
5.05
2.41
-0.08
-2.53
-5.10
-7.88
-10.82
-13.71
-16.25
-18.20
-19.46
-20.08
-20.17
-19.91
-19.41
-18.69
-17.71
-16.35
-14.51
-12.16
-9.30
-6.10
-2.74
0.60
3.80
6.86
9.78
12.57
15.06
17.06
18.30
18.62
18.06
16.83
15.34
13.94
12.91
12.27
11.97
11.90
11.94
12.11
12.33
12.51
12.52
12.22
11.61
10.80
10.08
9.66
9.64
9.91
10.25
10.43
10.34
10.02
9.61
9.31
9.19
9.26
9.41
9.42
9.15
8.52
7.55
6.38
5.13
3.88
2.64
1.37
0.08
-1.13
-2.08
-2.69
-3.00
-3.22
-3.64
-4.50
-5.88
-7.71
-9.76
-11.86
-13.95
-16.06
-18.34
-20.82
-23.47
-26.06
-28.28
-29.80
-30.45
-30.25
-29.40
-28.15
-26.61
-24.67
-22.13
-18.86
-14.90
-10.60
-6.41
-2.68
0.45
3.03
5.23
7.11
8.63
9.69
10.25
10.51
10.80
11.47
12.70
14.38
16.07
17.20
17.27
16.11
14.00
11.58
9.62
8.67
8.84
9.87
11.21
12.46
13.43
14.29
15.37
16.92
18.98
21.33
23.62
25.51
26.94
27.98
28.76
29.28
29.30
28.47
26.47
23.22
19.03
14.54
10.56
7.86
6.93
7.78
10.05
13.00
15.67
17.20
17.07
15.22
12.06
8.23
4.23
0.31
-3.59
-7.72
-12.09
-16.42
-20.15
-22.64
-23.50
-22.83
-21.18
-19.44
-18.55
-19.14
-21.38
-24.84
-28.63
-31.74
-33.35
-33.15
-31.36
-28.50
-25.04
-21.22
-16.98
-12.20
-7.07
-2.20
1.61
3.61
3.47
1.41
-1.89
-5.64
-9.00
-11.39
-12.32
-11.52
-8.87
-4.55
0.95
6.78
11.88
15.44
17.08
17.14
16.54
16.32
17.21
19.31
22.30
25.91
30.54
37.06
46.32
58.17
70.92
81.68
87.38
86.13
78.04
65.21
50.85
38.07
28.91
23.96
22.53
23.11
23.97
23.55
20.82
15.45
7.89
-0.81
-9.20
-15.78
-19.32
-19.15
-15.46
-9.30
-2.55
2.53
3.93
0.48
-7.76
-19.60
-33.18
-46.60
-58.42
-67.86
-74.69
-78.98
-80.99
-81.04
-79.66
-77.55
-75.45
-74.00
-73.36
-73.15
-72.65
-71.10
-68.09
-63.76
-58.68
-53.54
-48.90
-44.94
-41.62
-38.85
-36.76
-35.61
-35.74
-37.26
-39.90
-43.08
-46.05
-48.13
-48.84
-47.98
-45.55
-41.73
-36.81
-31.11
-25.04
-19.01
-13.38
-8.48
-4.50
-1.54
0.39
1.35
1.50
1.11
0.52
0.12
0.31
1.41
3.57
6.75
10.83
15.60
20.85
26.38
31.99
37.35
42.10
45.89
48.52
49.98
50.48
50.31
49.73
49.01
48.33
47.86
47.75
48.07
48.77
49.69
50.58
51.26
51.51
51.16
50.03
47.93
44.75
40.50
35.41
29.92
24.55
19.85
16.21
13.84
12.73
12.63
13.19
14.08
14.99
15.77
16.37
16.67
16.60
16.15
15.43
14.79
14.66
15.47
17.44
20.52
24.33
28.24
31.49
33.38
33.50
31.78
28.57
24.50
20.23
16.15
12.28
8.28
3.66
-1.94
-8.63
-16.27
-24.55
-33.12
-41.73
-50.26
-58.75
-67.37
-76.28
-85.52
-94.72
-103.14
-109.76
-113.62
-114.13
-111.27
-105.58
-97.89
-89.05
-79.73
-70.34
-61.08
-52.07
-43.40
-35.14
-27.33
-19.95
-12.95
-6.30
0.07
6.16
11.96
17.39
22.29
26.52
29.90
32.28
33.69
34.30
34.37
34.17
33.79
33.10
31.77
29.42
25.93
21.50
16.69
12.17
8.54
5.96
4.14
2.56
0.70
-1.67
-4.44
-7.22
-9.59
-11.27
-12.23
-12.75
-13.14
-13.70
-14.66
-16.06
-17.95
-20.21
-22.61
-24.83
-26.51
-27.37
-27.35
-26.69
-25.78
-25.04
-24.66
-24.61
-24.55
-24.10
-22.95
-20.97
-18.15
-14.55
-10.31
-5.58
-0.62
4.32
9.03
13.44
17.68
21.98
26.55
31.43
36.42
41.16
45.30
48.64
51.11
52.71
53.39
53.02
51.44
48.70
45.08
41.17
37.64
35.03
33.51
32.83
32.41
31.57
29.94
27.50
24.59
21.67
19.16
17.23
15.77
14.54
13.28
11.87
10.28
8.66
7.17
5.99
5.19
4.72
4.49
4.33
4.12
3.69
2.93
1.71
-0.10
-2.45
-5.04
-7.32
-8.67
-8.57
-6.92
-4.02
-0.48
3.02
6.00
8.31
10.00
11.18
11.91
12.27
12.31
12.16
11.94
11.74
11.59
11.38
11.05
10.59
10.12
9.78
9.72
9.91
10.22
10.28
9.61
7.73
4.18
-1.25
-8.44
-16.72
-25.07
-32.34
-37.70
-41.03
-42.87
-44.24
-46.11
-48.84
-51.94
-54.30
-54.63
-52.03
-46.39
-38.30
-28.81
-18.99
-9.63
-1.19
6.04
11.87
16.08
18.49
19.06
17.88
15.28
11.62
7.36
2.90
-1.35
-5.02
-7.70
-9.07
-8.87
-6.89
-3.15
2.20
8.71
15.79
22.72
28.92
33.99
37.71
40.09
41.14
40.99
39.80
37.83
35.32
32.46
29.32
25.80
21.82
17.31
12.38
7.22
2.09
-2.74
-7.13
-10.94
-14.15
-16.82
-19.17
-21.32
-23.38
-25.31
-26.96
-28.27
-29.23
-29.86
-30.15
-30.07
-29.44
-28.25
-26.70
-25.08
-23.74
-22.78
-22.09
-21.33
-20.16
-18.44
-16.27
-13.97
-11.91
-10.46
-9.85
-10.15
-11.23
-12.75
-14.25
-15.31
-15.70
-15.49
-15.01
-14.61
-14.53
-14.84
-15.37
-15.92
-16.31
-16.44
-16.29
-15.91
-15.38
-14.81
-14.44
-14.41
-14.83
-15.59
-16.44
-16.94
-16.63
-15.15
-12.35
-8.41
-3.80
0.82
4.86
8.01
10.33
12.18
13.98
16.03
18.34
20.71
22.89
24.88
26.93
29.37
32.43
35.97
39.46
42.23
43.72
43.79
42.69
40.92
38.84
36.53
33.85
30.64
27.07
23.66
21.16
20.11
20.60
22.12
23.77
24.67
24.30
22.60
19.87
16.57
13.10
9.58
6.03
2.33
-1.49
-5.27
-8.72
-11.58
-13.77
-15.48
-17.15
-19.24
-22.02
-25.42
-29.07
-32.48
-35.27
-37.27
-38.55
-39.28
-39.78
-40.46
-41.76
-44.05
-47.36
-51.20
-54.71
-56.96
-57.33
-55.81
-53.06
-49.96
-47.31
-45.50
-44.44
-43.76
-43.03
-41.93
-40.32
-38.28
-35.93
-33.43
-30.93
-28.47
-26.02
-23.47
-20.50
-16.72
-11.83
-5.68
1.49
8.97
15.88
21.45
25.43
28.25
30.77
33.91
38.18
43.37
48.80
53.79
57.86
61.05
63.69
66.11
68.35
70.24
71.51
72.12
72.45
72.97
74.12
76.06
78.59
81.29
83.74
85.65
86.93
87.56
87.34
85.94
82.89
77.90
71.06
63.06
55.12
48.62
44.63
43.44
44.44
46.21
47.04
45.49
40.78
32.94
22.58
10.69
-1.67
-13.50
-23.99
-32.53
-38.68
-42.33
-43.70
-43.29
-41.69
-39.30
-36.26
-32.40
-27.53
-21.74
-15.55
-9.84
-5.71
-3.94
-4.79
-7.91
-12.44
-17.41
-22.03
-25.87
-28.81
-31.01
-32.65
-33.88
-34.85
-35.65
-36.41
-37.25
-38.22
-39.17
-39.85
-39.94
-39.21
-37.64
-35.41
-32.81
-30.19
-27.85
-25.98
-24.65
-23.90
-23.69
-23.92
-24.44
-25.05
-25.53
-25.58
-24.91
-23.20
-20.28
-16.23
-11.43
-6.59
-2.40
0.59
2.28
2.93
3.08
3.23
3.62
4.24
4.89
5.28
5.27
4.80
3.99
3.11
2.47
2.36
2.96
4.17
5.74
7.30
8.51
9.17
9.29
9.01
8.50
7.88
7.19
6.38
5.41
4.20
2.79
1.28
-0.15
-1.32
-2.19
-2.89
-3.62
-4.61
-5.98
-7.70
-9.59
-11.43
-12.97
-14.02
-14.54
-14.51
-14.06
-13.32
-12.32
-10.96
-9.11
-6.68
-3.77
-0.78
1.85
3.77
4.93
5.53
5.96
6.51
7.26
8.14
8.92
9.51
9.96
10.44
11.12
12.01
12.96
13.68
13.94
13.67
13.10
12.63
12.69
13.47
14.80
16.18
16.91
16.38
14.22
10.51
5.68
0.39
-4.70
-9.12
-12.73
-15.62
-17.98
-19.89
-21.24
-21.79
-21.31
-19.80
-17.45
-14.65
-11.71
-8.80
-5.92
-2.92
0.23
3.40
6.23
8.25
9.07
8.50
6.73
4.34
2.16
1.04
1.58
3.94
7.88
12.81
18.09
23.15
27.62
31.25
34.00
36.00
37.54
39.08
41.02
43.54
46.51
49.49
51.93
53.39
53.59
52.52
50.15
46.48
41.58
35.76
29.68
24.20
20.02
17.30
15.63
14.20
12.33
9.84
7.14
4.96
3.90
4.01
4.60
4.49
2.48
-2.22
-9.66
-19.18
-29.66
-39.90
-48.92
-56.23
-61.70
-65.49
-67.90
-69.27
-70.14
-71.11
-72.74
-75.33
-78.81
-82.88
-87.27
-92.13
-98.03
-105.69
-115.35
-126.18
-136.13
-142.25
-141.58
-132.25
-114.28
-89.79
-62.62
-37.39
-18.35
-8.50
-9.23
-20.44
-40.71
-67.45
-96.97
-124.90
-147.00
-160.41
-164.61
-161.49
-154.45
-146.78
-140.33
-135.16
-130.30
-124.96
-119.21
-113.65
-108.27
-101.51
-90.33
-71.53
-43.56
-7.53
32.92
73.11
109.05
138.66
161.96
180.25
194.96
206.89
215.96
221.45
222.57
218.93
210.47
197.43
180.12
159.19
135.74
111.53
88.73
69.52
55.23
45.70
39.23
33.31
25.85
16.09
4.73
-6.89
-17.69
-27.52
-37.03
-46.71
-55.97
-62.86
-64.43
-58.27
-43.35
-20.21
9.94
45.91
87.04
133.30
184.60
240.66
300.22
361.53
422.66
481.81
536.42
582.53
615.14
629.55
623.68
598.04
555.93
502.31
442.50
380.26
317.17
253.47
189.33
126.43
66.51
11.05
-39.03
-82.75
-119.33
-148.16
-168.57
-184.35
-193.94
-194.44
-183.67
-165.64
-144.95
-125.07
-108.23
-95.53
-87.02
-81.35
-77.63
-75.53
-75.01
-75.49
-76.36
-77.23
-77.91
-78.21
-77.58
-76.07
-74.19
-72.50
-71.00
-69.58
-68.35
-67.65
-67.91
-69.29
-72.06
-76.50
-82.58
-89.83
-97.68
-105.88
-114.54
-124.02
-134.71
-147.22
-162.29
-180.42
-201.35
-223.70
-244.98
-262.02
-271.90
-273.03
-265.79
-252.40
-235.87
-218.81
-202.69
-187.86
-174.06
-161.13
-149.27
-138.90
-130.06
-122.29
-114.60
-105.99
-95.94
-84.60
-72.71
-61.11
-50.49
-41.00
-32.47
-24.52
-16.90
-9.58
-2.75
3.30
8.32
12.23
15.12
17.20
18.81
20.32
22.08
24.32
27.00
29.88
32.47
34.30
35.13
35.06
34.51
34.02
33.95
34.31
34.77
34.77
33.80
31.56
28.08
23.73
18.99
14.40
10.33
6.95
4.21
2.03
0.27
-1.13
-2.15
-2.75
-2.87
-2.55
-1.85
-0.87
0.29
1.49
2.55
3.31
3.64
3.62
3.35
3.03
2.69
2.31
1.77
1.02
0.26
-0.19
0.01
1.01
2.72
4.88
7.23
9.68
12.22
14.93
17.72
20.40
22.73
24.57
25.89
26.79
27.34
27.47
27.15
26.27
24.90
23.26
21.60
20.20
19.17
18.47
17.97
17.52
17.12
16.90
17.02
17.60
18.53
19.54
20.25
20.41
20.04
19.35
18.68
18.37
18.63
19.56
20.99
22.40
22.82
21.06
16.01
7.09
-5.26
-19.72
-34.37
-47.34
-57.29
-63.60
-66.33
-65.91
-62.94
-58.16
-52.26
-46.05
-40.21
-35.13
-30.87
-27.19
-23.72
-20.16
-16.48
-12.97
-10.06
-8.10
-7.18
-7.01
-7.03
-6.57
-5.10
-2.43
1.31
5.70
10.28
14.58
18.31
21.33
23.60
25.18
26.17
26.68
26.77
26.52
26.02
25.30
24.38
23.30
22.06
20.76
19.53
18.56
17.95
17.73
17.72
17.69
17.34
16.47
15.08
13.28
11.32
9.44
7.85
6.63
5.84
5.48
5.50
5.86
6.39
6.91
7.21
7.17
6.75
6.09
5.50
5.10
5.05
5.22
5.35
5.20
4.62
3.69
2.62
1.70
1.03
0.54
-0.05
-0.98
-2.37
-4.08
-5.87
-7.48
-8.86
-10.18
-11.65
-13.43
-15.40
-17.17
-18.29
-18.40
-17.38
-15.38
-12.75
-9.93
-7.25
-4.98
-3.12
-1.69
-0.56
0.43
1.40
2.46
3.63
4.88
6.03
6.97
7.56
7.81
7.79
7.74
7.87
8.27
8.91
9.61
10.20
10.49
10.44
10.03
9.36
8.53
7.68
7.03
6.68
6.74
7.15
7.75
8.32
8.64
8.56
8.04
7.21
6.27
5.44
4.91
4.75
4.92
5.24
5.52
5.66
5.61
5.43
5.17
4.86
4.48
3.92
3.08
1.88
0.28
-1.72
-3.96
-6.27
-8.38
-10.10
-11.31
-12.06
-12.51
-12.90
-13.47
-14.26
-15.18
-15.99
-16.29
-15.73
-14.16
-11.66
-8.59
-5.33
-2.20
0.66
3.24
5.60
7.66
9.29
10.39
10.95
11.15
11.20
11.29
11.43
11.60
11.65
11.61
11.58
11.72
12.09
12.64
13.21
13.62
13.75
13.53
13.00
12.28
11.49
10.74
10.07
9.50
9.03
8.64
8.32
8.06
7.76
7.27
6.42
5.17
3.60
1.94
0.44
-0.78
-1.71
-2.43
-3.09
-3.74
-4.41
-5.09
-5.86
-6.75
-7.74
-8.84
-9.96
-11.12
-12.35
-13.70
-15.08
-16.38
-17.39
-17.99
-18.34
-18.76
-19.67
-21.33
-23.61
-26.03
-27.90
-28.57
-27.68
-25.29
-21.82
-17.88
-14.07
-10.72
-7.89
-5.45
-3.26
-1.22
0.61
2.16
3.37
4.27
5.02
5.79
6.68
7.70
8.78
9.82
10.78
11.64
12.43
13.21
13.94
14.54
14.86
14.71
14.04
12.94
11.68
10.62
10.04
10.08
10.59
11.25
11.70
11.72
11.27
10.48
9.53
8.52
7.52
6.44
5.32
4.21
3.23
2.50
2.07
1.89
1.83
1.76
1.60
1.36
1.06
0.65
0.03
-0.88
-2.14
-3.65
-5.19
-6.50
-7.40
-7.93
-8.30
-8.74
-9.35
-10.01
-10.45
-10.26
-9.20
-7.24
-4.63
-1.77
0.92
3.22
5.06
6.44
7.38
7.84
7.77
7.15
6.13
4.95
3.92
3.31
3.20
3.54
4.10
4.63
4.94
4.94
4.73
4.49
4.46
4.86
5.69
6.75
7.62
7.88
7.35
6.11
4.56
3.23
2.54
2.66
3.40
4.47
5.52
6.37
6.82
6.80
6.23
5.09
3.49
1.72
0.16
-0.83
-1.06
-0.63
0.24
1.16
1.83
2.02
1.70
0.94
-0.05
-1.03
-1.85
-2.42
-2.75
-2.92
-3.05
-3.22
-3.66
-4.55
-6.06
-8.21
-10.80
-13.37
-15.40
-16.45
-16.32
-15.14
-13.27
-11.09
-9.07
-7.49
-6.52
-6.13
-6.08
-6.06
-5.78
-5.07
-3.97
-2.64
-1.22
0.21
1.64
3.13
4.63
6.09
7.41
8.54
9.47
10.25
10.87
11.29
11.55
11.67
11.75
11.84
12.00
12.15
12.25
12.19
11.95
11.54
10.93
10.17
9.23
8.12
6.84
5.42
3.91
2.42
1.11
0.05
-0.67
-1.16
-1.52
-1.93
-2.43
-2.98
-3.44
-3.58
-3.31
-2.66
-1.83
-1.10
-0.77
-1.03
-1.84
-2.99
-4.11
-4.87
-5.11
-4.91
-4.56
-4.42
-4.73
-5.55
-6.71
-7.87
-8.66
-8.78
-8.12
-6.81
-5.18
-3.64
-2.49
-1.89
-1.72
-1.71
-1.60
-1.23
-0.62
0.10
0.83
1.52
2.15
2.69
3.03
3.09
2.82
2.35
1.91
1.84
2.32
3.34
4.63
5.77
6.36
6.16
5.18
3.65
1.98
0.50
-0.55
-1.13
-1.38
-1.45
-1.51
-1.67
-1.94
-2.27
-2.63
-2.99
-3.35
-3.83
-4.46
-5.32
-6.36
-7.42
-8.30
-8.85
-9.06
-8.99
-8.84
-8.59
-8.22
-7.64
-6.84
-5.95
-5.25
-5.05
-5.43
-6.34
-7.54
-8.77
-9.94
-11.00
-12.04
-13.10
-14.07
-14.71
-14.76
-13.96
-12.23
-9.71
-6.66
-3.50
-0.58
1.94
4.14
6.18
8.23
10.28
12.16
13.64
14.61
15.17
15.61
16.25
17.24
18.51
19.73
20.56
20.72
20.20
19.11
17.72
16.23
14.77
13.35
11.96
10.68
9.64
9.03
8.98
9.44
10.12
10.60
10.51
9.68
8.21
6.41
4.65
3.20
2.19
1.48
0.85
0.17
-0.63
-1.44
-2.09
-2.49
-2.62
-2.62
-2.70
-3.01
-3.53
-4.15
-4.72
-5.14
-5.39
-5.53
-5.60
-5.63
-5.60
-5.61
-5.91
-6.76
-8.37
-10.67
-13.35
-15.90
-17.84
-18.75
-18.49
-17.18
-15.04
-12.50
-9.95
-7.59
-5.47
-3.42
-1.23
1.18
3.62
5.79
7.32
8.10
8.26
8.08
7.91
7.85
7.97
8.18
8.45
8.78
9.24
9.84
10.47
10.97
11.20
11.04
10.54
9.78
8.84
7.86
6.92
6.10
5.41
4.83
4.35
3.93
3.55
3.18
2.76
2.33
1.97
1.80
1.90
2.31
2.88
3.34
3.45
3.02
2.01
0.60
-0.95
-2.37
-3.48
-4.22
-4.65
-4.86
-4.96
-5.11
-5.39
-5.79
-6.26
-6.80
-7.51
-8.54
-10.01
-11.80
-13.64
-15.07
-15.65
-15.17
-13.76
-11.80
-9.72
-7.86
-6.33
-5.03
-3.76
-2.37
-0.89
0.58
1.78
2.56
2.90
2.96
2.97
3.12
3.45
3.83
4.17
4.36
4.48
4.69
5.10
5.73
6.46
7.12
7.55
7.73
7.74
7.69
7.68
7.73
7.83
7.92
8.00
8.12
8.35
8.75
9.28
9.83
10.29
10.50
10.39
9.93
9.11
7.92
6.44
4.84
3.35
2.15
1.35
0.85
0.47
-0.01
-0.65
-1.42
-2.24
-3.02
-3.78
-4.52
-5.22
-5.78
-6.03
-5.94
-5.61
-5.29
-5.31
-5.86
-7.04
-8.75
-10.74
-12.73
-14.42
-15.57
-16.03
-15.80
-15.00
-13.80
-12.41
-10.89
-9.26
-7.54
-5.80
-4.19
-2.91
-2.11
-1.75
-1.70
-1.74
-1.75
-1.70
-1.63
-1.57
-1.56
-1.50
-1.20
-0.55
0.44
1.59
2.57
3.05
2.84
2.05
0.95
-0.08
-0.78
-1.14
-1.27
-1.29
-1.20
-0.98
-0.56
0.04
0.69
1.21
1.57
1.86
2.24
2.88
3.75
4.70
5.47
5.88
5.91
5.70
5.43
5.29
5.39
5.68
6.04
6.25
6.12
5.45
4.21
2.50
0.55
-1.37
-3.02
-4.34
-5.45
-6.57
-7.94
-9.60
-11.44
-13.17
-14.48
-15.09
-14.86
-13.80
-11.90
-9.32
-6.25
-2.97
0.13
2.71
4.54
5.62
6.15
6.44
6.70
7.02
7.32
7.43
7.26
6.78
6.17
5.68
5.52
5.85
6.62
7.64
8.56
9.10
9.12
8.66
7.94
7.22
6.68
6.40
6.40
6.65
7.23
8.14
9.30
10.52
11.41
11.69
11.18
9.96
8.33
6.70
5.33
4.29
3.46
2.65
1.71
0.57
-0.66
-1.81
-2.71
-3.31
-3.71
-4.03
-4.33
-4.61
-4.78
-4.78
-4.70
-4.79
-5.28
-6.27
-7.63
-9.03
-10.18
-10.98
-11.57
-12.27
-13.36
-14.79
-16.22
-17.16
-17.20
-16.12
-14.09
-11.49
-8.81
-6.50
-4.70
-3.36
-2.23
-1.05
0.23
1.47
2.42
2.89
2.91
2.76
2.79
3.28
4.26
5.53
6.78
7.76
8.34
8.57
8.60
8.52
8.44
8.41
8.41
8.40
8.36
8.33
8.38
8.58
8.90
9.22
9.40
9.28
8.87
8.25
7.64
7.14
6.73
6.31
5.77
5.02
4.06
2.95
1.78
0.67
-0.24
-0.82
-1.06
-1.06
-1.08
-1.41
-2.22
-3.44
-4.84
-6.16
-7.21
-8.06
-8.80
-9.53
-10.23
-10.80
-11.19
-11.42
-11.65
-12.02
-12.55
-13.10
-13.33
-12.94
-11.75
-9.85
-7.51
-5.07
-2.86
-1.04
0.37
1.58
2.82
4.30
6.04
7.82
9.30
10.06
9.94
8.94
7.42
5.76
4.33
3.26
2.51
1.93
1.40
0.91
0.49
0.20
-0.05
-0.41
-1.01
-1.89
-2.91
-3.92
-4.78
-5.58
-6.44
-7.49
-8.66
-9.67
-10.12
-9.78
-8.66
-7.02
-5.31
-3.92
-3.13
-2.99
-3.41
-4.08
-4.58
-4.56
-3.80
-2.35
-0.54
1.10
2.14
2.35
1.85
1.01
0.15
-0.46
-0.78
-0.86
-0.82
-0.73
-0.57
-0.35
-0.12
0.04
-0.01
-0.37
-0.95
-1.50
-1.67
-1.13
0.20
2.17
4.35
6.33
7.82
8.79
9.41
9.87
10.33
10.82
11.37
11.95
12.62
13.41
14.31
15.22
16.02
16.63
17.01
17.25
17.49
17.91
18.65
19.75
21.15
22.69
24.29
25.89
27.65
29.83
32.62
35.95
39.50
42.79
45.46
47.41
48.88
50.32
52.20
54.77
58.05
61.91
66.20
70.91
76.21
82.41
89.82
98.53
108.03
116.89
122.53
121.67
110.98
87.91
51.37
2.07
-57.57
-123.64
-190.86
-253.19
-304.34
-338.78
-352.99
-346.24
-320.60
-280.31
-230.66
-177.14
-125.05
-79.28
-43.80
-20.86
-10.15
-8.58
-11.28
-13.30
-11.37
-4.81
4.81
15.05
24.06
31.57
38.88
48.08
61.23
79.59
103.20
130.85
160.23
188.38
212.36
229.98
240.01
242.39
237.89
227.72
213.21
195.64
176.22
156.06
136.08
116.81
98.28
80.13
61.85
43.23
24.63
6.74
-9.47
-23.13
-33.81
-41.80
-47.86
-52.86
-57.39
-61.54
-65.18
-67.98
-69.61
-69.97
-69.32
-68.16
-67.11
-66.68
-67.12
-68.67
-71.10
-73.66
-75.25
-74.90
-72.24
-67.61
-61.96
-56.52
-53.30
-53.39
-56.31
-60.40
-63.97
-66.02
-66.38
-65.45
-63.84
-64.00
-67.43
-73.63
-80.70
-86.78
-91.08
-93.73
-95.31
-96.40
-100.18
-108.02
-118.03
-126.34
-129.97
-128.61
-124.12
-119.21
-116.23
-120.43
-134.69
-157.73
-185.29
-212.76
-236.65
-254.25
-263.50
-239.97
-175.60
-85.09
3.75
70.52
110.76
130.24
137.42
138.80
137.68
131.24
117.41
98.20
78.47
63.14
54.19
51.13
52.04
54.79
54.98
49.76
41.30
33.88
31.73
36.33
46.79
60.70
75.39
86.74
92.46
93.17
91.32
90.28
92.23
98.23
108.44
122.22
137.18
150.69
161.25
163.72
156.36
139.62
116.09
89.86
65.03
44.10
27.79
15.60
6.36
-0.24
-4.39
-6.28
-6.37
-5.63
-5.21
-6.02
-8.35
-11.89
-15.26
-17.32
-17.49
-15.89
-13.21
-10.28
-7.83
-6.13
-5.13
-4.17
-2.70
-0.49
2.29
5.08
7.20
8.09
7.52
5.70
3.22
0.69
-1.49
-3.22
-4.59
-5.80
-7.00
-8.23
-9.44
-10.50
-11.36
-12.08
-12.82
-13.75
-14.80
-15.69
-15.95
-15.09
-12.97
-9.81
-6.16
-2.69
0.10
2.02
3.12
3.62
3.71
3.50
3.11
2.59
2.06
1.61
1.31
1.18
1.23
1.43
1.71
2.00
2.28
2.54
2.89
3.43
4.19
5.07
5.85
6.25
6.13
5.54
4.65
3.75
2.98
2.34
1.72
1.03
0.28
-0.34
-0.61
-0.32
0.53
1.81
3.21
4.41
5.15
5.31
4.91
4.06
2.93
1.70
0.46
-0.79
-2.09
-3.50
-5.00
-6.43
-7.61
-8.41
-8.85
-9.18
-9.70
-10.70
-12.26
-14.28
-16.44
-18.45
-20.05
-21.06
-21.37
-20.89
-19.62
-17.64
-15.13
-12.33
-9.43
-6.57
-3.76
-0.98
1.70
4.19
6.24
7.66
8.29
8.17
7.45
6.46
5.58
5.11
5.17
5.66
6.26
6.60
6.48
6.00
5.47
5.22
5.42
5.94
6.52
6.86
6.95
6.92
6.99
7.24
7.50
7.48
6.99
6.08
5.07
4.43
4.44
5.08
5.98
6.60
6.47
5.42
3.67
1.69
0.04
-0.92
-1.12
-0.77
-0.20
0.27
0.48
0.41
0.05
