1462949848.00
64.000000
-0.00
-0.00
-0.00
-0.00
-0.00
-0.00
-0.00
-0.00
-0.00
-0.00
0.00
0.01
0.01
-0.00
-0.03
-0.05
-0.05
0.00
0.13
0.36
0.66
1.01
1.37
1.72
2.06
2.40
2.79
3.24
3.80
4.42
5.06
5.66
6.20
6.68
7.15
7.68
8.31
9.14
10.09
11.04
11.88
12.56
13.14
13.76
14.65
15.96
17.91
20.32
22.90
25.38
27.58
29.57
31.68
34.32
37.81
42.54
48.15
54.10
59.83
64.97
69.58
74.14
79.34
85.71
93.76
103.00
112.62
121.73
129.77
136.75
143.30
150.75
157.77
166.64
177.95
191.79
206.97
220.57
228.25
225.36
208.53
176.87
132.76
80.05
23.07
-34.94
-92.44
-149.16
-205.23
-260.37
-313.74
-363.87
-409.83
-450.91
-486.50
-515.74
-537.23
-549.22
-549.96
-538.37
-514.21
-478.67
-433.88
-382.45
-327.02
-269.84
-212.63
-156.66
-102.95
-52.37
-5.90
35.58
71.43
101.35
125.50
144.38
158.69
169.15
176.37
180.75
182.57
182.07
179.51
175.23
169.65
163.18
156.15
148.81
141.30
133.69
126.02
118.33
110.69
103.16
95.80
88.68
81.83
75.25
68.95
62.95
57.25
51.86
46.78
42.03
37.59
33.45
29.61
26.07
22.81
19.83
17.11
14.67
12.48
10.54
8.83
7.35
6.07
4.97
4.05
3.27
2.62
2.09
1.65
1.30
1.01
0.79
0.61
0.48
0.37
0.29
0.24
0.20
0.18
0.17
0.17
0.19
0.21
0.23
0.26
0.30
0.34
0.39
0.43
0.47
0.52
0.57
0.62
0.68
0.74
0.80
0.87
0.94
1.02
1.11
1.21
1.32
1.45
1.59
1.75
1.93
2.12
2.34
2.58
2.85
3.14
3.47
3.83
4.21
4.64
5.10
5.59
6.13
6.70
7.32
7.98
8.69
9.43
10.23
11.07
11.95
12.89
13.87
14.91
16.01
17.18
18.40
19.68
20.96
22.21
23.34
24.27
24.87
25.02
24.62
23.54
21.75
19.23
16.03
12.21
7.95
3.43
-1.13
-5.51
-9.52
-12.97
-15.74
-17.76
-19.01
-19.51
-19.35
-18.63
-17.48
-16.06
-14.49
-12.87
-11.26
-9.66
-8.04
-6.40
-4.71
-2.98
-1.23
0.52
2.24
3.95
5.73
7.70
9.84
12.14
14.55
17.00
19.41
21.61
23.60
25.54
27.79
30.45
33.53
36.93
40.46
43.86
46.88
49.51
52.06
55.16
58.99
63.53
68.47
73.36
77.64
80.71
82.45
83.34
84.36
85.99
88.20
90.37
91.44
90.08
84.46
73.21
55.48
35.52
15.94
-2.38
-19.64
-36.60
-54.29
-74.80
-99.50
-128.23
-159.18
-189.28
-216.25
-237.24
-249.10
-249.67
-240.64
-225.43
-207.58
-189.26
-170.41
-152.27
-134.99
-117.55
-99.19
-82.39
-70.08
-63.79
-62.92
-64.28
-68.27
-74.87
-82.59
-74.05
-40.14
15.22
77.88
123.90
152.21
162.47
153.62
128.72
90.35
39.55
-21.94
-91.15
-164.71
-224.80
-261.20
-272.89
-267.57
-255.81
-245.85
-239.05
-230.12
-210.99
-174.80
-124.41
-68.26
-15.91
25.74
54.16
70.88
83.28
97.86
118.38
142.16
165.25
185.83
205.24
226.74
248.28
269.57
291.07
311.01
323.23
320.17
296.14
249.66
184.60
113.23
42.07
-20.78
-69.02
-99.65
-112.78
-110.71
-97.04
-75.87
-51.62
-31.44
-17.94
-10.34
-6.71
-4.30
0.73
12.67
36.03
73.16
123.45
187.93
255.27
313.70
352.68
365.31
349.25
307.57
257.28
201.32
142.56
83.07
24.58
-32.77
-90.11
-148.21
-207.85
-271.23
-331.55
-374.89
-388.57
-367.36
-314.94
-240.33
-162.84
-85.14
-8.98
61.90
123.28
169.83
194.96
195.12
172.36
133.58
88.52
44.27
3.33
-36.36
-81.02
-137.67
-210.43
-289.74
-358.58
-399.13
-401.15
-364.77
-298.46
-216.23
-133.56
-62.59
-13.20
18.09
37.87
54.26
73.92
101.23
137.82
184.01
239.44
297.34
342.23
357.26
336.03
284.58
218.28
153.63
102.53
70.96
51.51
34.27
9.52
-25.37
-71.56
-129.71
-197.47
-267.32
-321.12
-342.09
-322.80
-285.68
-242.88
-202.15
-162.61
-125.04
-86.62
-42.56
9.20
67.85
128.85
192.17
255.83
315.08
352.76
354.06
316.43
251.47
187.18
128.47
75.11
23.76
-30.33
-87.47
-141.81
-184.04
-206.92
-208.51
-194.03
-168.45
-137.51
-105.94
-75.63
-43.63
-4.38
46.25
106.25
171.26
235.20
290.84
331.11
351.38
351.63
336.44
311.98
282.67
249.61
213.32
173.15
127.60
75.31
15.09
-52.94
-129.32
-215.06
-309.53
-405.93
-493.18
-559.93
-598.29
-607.19
-589.30
-551.66
-503.30
-451.39
-396.32
-335.39
-267.22
-194.16
-123.00
-56.93
2.73
56.29
106.19
159.97
224.96
304.10
393.99
484.68
568.64
637.89
684.77
681.19
613.36
493.61
356.29
250.14
176.93
125.70
83.18
35.35
-24.78
-93.80
-163.99
-227.80
-280.06
-318.55
-338.38
-338.34
-322.70
-298.43
-267.50
-229.65
-184.84
-134.48
-80.63
-21.82
42.10
108.31
171.70
230.10
280.86
319.91
331.90
307.45
254.03
190.02
137.31
95.81
62.20
33.55
6.31
-22.32
-53.56
-87.20
-123.83
-164.99
-212.13
-261.87
-308.56
-346.23
-369.25
-372.72
-355.22
-320.93
-278.68
-238.46
-204.95
-177.94
-154.62
-130.43
-99.99
-59.92
-10.27
45.50
101.42
152.26
193.09
218.66
226.54
218.49
198.70
170.89
137.21
99.02
60.46
27.87
6.71
1.35
13.35
39.70
72.57
102.27
116.00
107.24
88.61
71.41
59.43
55.86
62.87
79.90
103.59
128.59
149.65
162.05
161.34
146.88
114.86
70.25
23.61
-15.62
-44.65
-64.42
-78.76
-90.20
-98.93
-104.98
-108.41
-110.41
-111.95
-112.54
-109.41
-99.36
-80.52
-51.91
-14.95
26.66
66.09
95.01
106.33
97.31
70.52
28.91
-16.69
-52.41
-69.47
-69.67
-62.23
-57.49
-60.16
-70.76
-87.76
-108.26
-129.96
-149.29
-161.88
-163.23
-150.49
-123.90
-87.57
-47.71
-9.96
21.55
44.95
60.51
70.11
76.20
81.12
86.65
94.46
106.39
123.09
142.98
162.02
174.88
176.84
165.92
143.64
114.33
83.04
52.58
22.44
-10.09
-47.19
-88.40
-130.37
-168.78
-200.89
-226.91
-249.71
-272.89
-298.57
-326.28
-353.29
-375.65
-389.59
-392.28
-382.08
-358.66
-323.04
-277.41
-224.76
-168.18
-110.35
-53.40
0.74
50.21
93.52
130.30
161.73
190.05
217.14
242.98
264.89
278.55
280.21
268.98
247.77
222.36
199.04
182.23
173.23
170.48
170.85
171.04
168.39
161.24
149.14
132.98
115.00
98.28
85.56
78.09
74.95
73.52
70.90
65.59
58.05
50.27
44.20
40.37
37.59
33.82
27.71
19.56
11.08
4.01
-1.31
-6.19
-12.64
-21.73
-32.42
-41.94
-47.35
-47.30
-42.72
-36.11
-29.82
-24.72
-19.91
-13.73
-5.13
5.39
15.99
24.44
29.17
29.97
27.80
24.28
20.92
18.55
17.20
16.31
15.24
13.72
12.12
11.14
11.35
12.76
14.72
16.52
17.91
19.29
21.34
24.33
27.64
30.10
30.76
29.71
28.12
27.40
28.14
29.56
30.09
28.43
24.51
19.53
15.13
12.26
10.76
9.69
8.26
6.30
4.12
1.91
-0.74
-4.70
-10.47
-17.59
-24.60
-29.86
-32.51
-32.94
-32.32
-31.73
-31.39
-30.63
-28.65
-25.17
-20.69
-16.13
-12.04
-8.27
-4.13
0.85
6.45
11.73
15.51
17.17
16.93
15.75
14.72
14.63
15.79
18.20
21.70
25.94
30.19
33.27
33.92
31.29
25.48
17.69
9.76
3.36
-0.56
-2.06
-1.85
-0.75
0.54
1.54
1.87
1.10
-1.19
-5.24
-11.03
-18.20
-26.15
-34.09
-41.22
-46.90
-50.86
-53.39
-55.34
-57.76
-61.27
-65.66
-69.69
-71.64
-70.06
-64.52
-55.78
-45.36
-34.81
-25.10
-16.53
-8.99
-2.49
2.68
6.05
7.40
7.05
5.77
4.43
3.47
2.80
2.00
0.79
-0.64
-1.63
-1.50
-0.04
2.30
4.64
6.17
6.67
6.53
6.55
7.28
8.62
9.85
9.96
8.23
4.65
-0.05
-4.80
-8.62
-11.00
-11.92
-11.56
-10.15
-7.85
-5.02
-2.43
-1.15
-2.21
-5.94
-11.64
-17.65
-21.98
-23.23
-21.12
-16.41
-10.34
-3.87
2.65
9.30
16.07
22.44
27.45
30.13
30.03
27.51
23.62
19.47
15.85
12.95
10.48
8.19
6.13
4.79
4.75
6.38
9.48
13.25
16.55
18.27
17.76
15.09
10.96
6.39
2.41
-0.45
-2.17
-3.25
-4.38
-6.14
-8.71
-11.88
-15.24
-18.42
-21.38
-24.42
-27.96
-32.24
-37.03
-41.69
-45.30
-47.10
-46.63
-43.91
-39.11
-32.51
-24.35
-14.92
-4.67
5.76
15.62
24.20
30.93
35.48
37.72
37.80
36.14
33.41
30.40
27.79
25.92
24.79
24.26
24.25
24.85
26.20
28.16
30.16
31.29
30.81
28.52
24.88
20.83
17.17
14.24
11.83
9.48
6.84
3.87
0.76
-2.31
-5.35
-8.52
-11.97
-15.68
-19.53
-23.45
-27.49
-31.76
-36.15
-40.25
-43.33
-44.70
-44.07
-41.60
-37.79
-33.06
-27.53
-21.00
-13.36
-4.91
3.53
10.93
16.37
19.48
20.46
19.93
18.63
17.16
15.89
15.02
14.69
15.05
16.27
18.45
21.50
24.98
28.21
30.34
30.75
29.35
26.67
23.76
21.67
20.96
21.46
22.43
22.97
22.45
20.72
18.00
14.60
10.62
6.02
0.86
-4.49
-9.29
-12.70
-14.30
-14.45
-14.18
-14.77
-17.04
-20.99
-25.87
-30.71
-34.90
-38.43
-41.60
-44.46
-46.46
-46.59
-43.94
-38.45
-30.99
-22.94
-15.40
-8.62
-2.07
4.89
12.17
18.78
23.26
24.76
23.64
21.46
20.05
20.46
22.41
24.57
25.54
24.71
22.50
19.96
17.93
16.57
15.41
13.99
12.30
10.81
10.07
10.17
10.56
10.40
9.13
6.87
4.34
2.34
1.20
0.57
-0.24
-1.75
-3.86
-5.82
-6.82
-6.49
-5.24
-4.01
-3.67
-4.53
-6.26
-8.29
-10.42
-13.08
-17.13
-23.14
-30.80
-38.79
-45.32
-49.06
-49.81
-48.57
-46.76
-45.39
-44.31
-42.46
-38.68
-32.55
-24.78
-16.77
-9.83
-4.49
-0.33
3.55
7.73
12.08
15.67
17.41
16.74
14.00
10.41
7.53
6.55
7.82
10.68
13.89
16.31
17.37
17.30
16.76
16.24
15.73
14.86
13.30
11.30
9.67
9.38
10.89
13.80
16.98
19.15
19.47
17.90
15.14
12.06
9.33
7.08
4.99
2.63
-0.34
-3.97
-8.17
-12.83
-17.92
-23.52
-29.50
-35.38
-40.26
-43.12
-43.20
-40.29
-34.80
-27.46
-19.02
-10.10
-1.29
6.66
12.88
16.68
17.95
17.36
16.08
15.19
15.20
15.82
16.40
16.43
15.92
15.41
15.49
16.35
17.63
18.62
18.72
17.77
16.09
14.20
12.47
10.93
9.35
7.53
5.51
3.59
2.16
1.42
1.27
1.31
1.01
-0.01
-1.78
-3.95
-6.03
-7.65
-8.77
-9.60
-10.39
-11.22
-12.02
-12.77
-13.84
-15.91
-19.65
-25.13
-31.48
-37.16
-40.57
-40.81
-38.08
-33.42
-28.09
-22.87
-17.96
-13.14
-8.25
-3.34
1.32
5.51
9.04
11.76
13.32
13.32
11.52
8.27
4.61
1.92
1.30
3.09
6.66
10.83
14.40
16.68
17.64
17.83
17.96
18.60
19.93
21.61
22.83
22.66
20.52
16.56
11.76
7.46
4.76
3.88
4.04
3.93
2.50
-0.45
-4.31
-8.07
-10.97
-12.78
-13.79
-14.44
-15.04
-15.71
-16.51
-17.59
-19.26
-21.86
-25.60
-30.44
-36.01
-41.66
-46.50
-49.49
-49.73
-46.76
-40.82
-32.80
-23.95
-15.35
-7.57
-0.60
5.92
12.25
18.31
23.57
27.32
29.11
28.96
27.42
25.27
23.18
21.48
20.25
19.42
19.03
19.13
19.65
20.20
20.14
18.91
16.39
13.14
10.23
8.64
8.79
10.30
12.27
13.77
14.34
14.04
13.20
12.06
10.54
8.36
5.44
2.04
-1.26
-3.96
-5.91
-7.47
-9.16
-11.38
-14.04
-16.75
-19.03
-20.75
-22.18
-23.96
-26.64
-30.42
-35.04
-39.89
-44.21
-47.20
-48.11
-46.27
-41.37
-33.61
-23.85
-13.48
-3.96
3.66
9.11
12.81
15.59
18.15
20.79
23.32
25.19
25.80
24.73
21.98
18.06
13.96
10.94
10.07
11.72
15.33
19.58
23.01
24.68
24.58
23.46
22.21
21.33
20.69
19.79
18.33
16.38
14.40
12.74
11.40
9.96
7.89
4.94
1.39
-2.17
-5.09
-7.18
-8.66
-9.98
-11.46
-13.10
-14.62
-15.66
-16.07
-15.98
-15.77
-15.87
-16.69
-18.36
-20.80
-23.63
-26.33
-28.33
-29.14
-28.35
-25.68
-21.01
-14.38
-6.20
2.69
11.11
17.91
22.33
24.33
24.54
23.82
22.75
21.43
19.57
16.97
13.86
11.03
9.40
9.57
11.48
14.45
17.60
20.24
22.06
23.04
23.27
22.77
21.54
19.62
17.12
14.18
10.92
7.37
3.66
0.09
-2.81
-4.54
-4.91
-4.29
-3.49
-3.44
-4.69
-7.16
-10.31
-13.49
-16.32
-18.79
-21.17
-23.66
-26.30
-28.96
-31.63
-34.48
-37.73
-41.35
-44.66
-46.40
-45.16
-40.11
-31.55
-20.84
-9.92
-0.48
6.72
11.90
15.79
19.07
21.97
24.25
25.67
26.32
26.60
26.98
27.61
28.25
28.45
27.90
26.68
25.10
23.50
21.93
20.19
18.03
15.40
12.56
9.96
8.02
6.95
6.76
7.32
8.38
9.47
9.97
9.21
6.77
2.67
-2.48
-7.73
-12.17
-15.26
-16.99
-17.88
-18.68
-20.13
-22.67
-26.25
-30.39
-34.48
-37.97
-40.69
-42.83
-44.57
-45.85
-46.11
-44.55
-40.55
-34.11
-25.99
-17.37
-9.31
-2.27
3.91
9.70
15.37
20.67
25.01
27.83
28.92
28.57
27.29
25.56
23.74
22.14
21.18
21.32
22.82
25.42
28.33
30.58
31.47
30.94
29.52
27.98
26.86
26.29
26.05
25.79
25.15
23.76
21.26
17.36
12.11
6.04
0.07
-4.83
-8.09
-9.88
-11.01
-12.47
-14.95
-18.51
-22.66
-26.71
-30.16
-32.99
-35.47
-37.94
-40.51
-42.94
-44.86
-45.94
-46.00
-44.96
-42.61
-38.62
-32.58
-24.41
-14.60
-4.10
5.87
14.32
20.73
25.17
27.98
29.65
30.53
30.82
30.57
29.76
28.44
26.77
25.07
23.74
23.05
22.97
23.15
23.13
22.65
21.86
21.29
21.46
22.47
23.78
24.46
23.61
20.92
16.70
11.76
6.90
2.63
-0.93
-3.85
-6.21
-7.97
-9.10
-9.70
-10.06
-10.54
-11.43
-12.79
-14.40
-15.89
-16.88
-17.21
-16.97
-16.67
-17.04
-18.83
-22.42
-27.48
-32.86
-36.97
-38.33
-36.13
-30.46
-22.07
-11.97
-1.05
9.88
19.93
28.05
33.21
34.94
33.63
30.61
27.55
25.72
25.39
25.85
25.88
24.63
22.08
19.12
17.03
16.79
18.49
21.29
23.81
24.91
24.22
22.20
19.77
17.66
15.95
14.17
11.68
8.24
4.24
0.43
-2.63
-4.88
-6.73
-8.76
-11.20
-13.89
-16.40
-18.40
-19.92
-21.28
-22.90
-25.09
-27.90
-31.25
-35.02
-39.19
-43.68
-48.31
-52.66
-56.07
-57.77
-56.99
-53.28
-46.71
-38.05
-28.63
-20.07
-13.60
-9.54
-7.14
-4.86
-1.11
4.94
12.87
21.26
28.31
32.71
34.17
33.35
31.46
29.63
28.52
28.24
28.56
29.13
29.74
30.30
30.84
31.42
32.00
32.46
32.52
31.81
30.03
27.07
23.11
18.60
14.14
10.35
7.64
6.07
5.40
5.10
4.58
3.40
1.34
-1.54
-5.11
-9.16
-13.60
-18.32
-23.21
-28.10
-32.88
-37.55
-42.21
-46.95
-51.65
-55.89
-59.05
-60.49
-59.73
-56.63
-51.33
-44.21
-35.80
-26.70
-17.56
-8.95
-1.41
4.75
9.34
12.40
14.08
14.65
14.55
14.32
14.54
15.71
18.04
21.43
25.51
29.72
33.53
36.60
38.88
40.64
42.24
43.90
45.45
46.34
45.83
43.37
38.98
33.26
27.28
22.09
18.29
15.88
14.32
12.89
10.91
7.92
3.64
-2.13
-9.35
-17.65
-26.34
-34.40
-40.89
-45.20
-47.20
-47.18
-45.64
-43.15
-40.33
-37.90
-36.63
-37.16
-39.76
-44.07
-49.16
-53.82
-56.83
-57.25
-54.56
-48.67
-39.89
-28.94
-16.81
-4.60
6.73
16.52
24.42
30.39
34.49
36.90
37.86
37.65
36.51
34.69
32.50
30.36
28.84
28.42
29.26
30.96
32.71
33.71
33.67
33.06
32.77
33.60
35.67
38.29
40.31
40.77
39.40
36.62
33.32
30.16
27.29
24.25
20.45
15.63
10.23
5.29
1.88
0.57
0.88
1.58
1.25
-0.79
-4.21
-7.74
-10.00
-10.39
-9.31
-7.94
-7.53
-8.93
-12.53
-18.61
-27.50
-39.15
-52.58
-65.48
-74.67
-77.33
-72.41
-61.29
-47.27
-34.06
-24.32
-18.73
-16.14
-14.55
-12.15
-8.08
-2.51
3.75
9.73
14.80
18.85
22.25
25.45
28.61
31.41
33.21
33.52
32.35
30.41
28.75
28.18
28.92
30.44
31.80
32.15
31.00
28.40
24.95
21.48
18.82
17.32
16.77
16.35
15.01
12.01
7.33
1.70
-3.85
-8.54
-12.16
-14.98
-17.43
-19.70
-21.70
-23.30
-24.66
-26.28
-28.75
-32.35
-36.81
-41.36
-45.07
-47.19
-47.39
-45.68
-42.16
-36.91
-30.02
-21.64
-12.22
-2.47
6.72
14.51
20.30
23.86
25.43
25.51
24.71
23.51
22.07
20.35
18.27
16.00
14.15
13.65
15.29
19.30
25.00
31.02
35.77
38.18
38.07
36.16
33.50
30.86
28.50
26.05
22.97
19.01
14.18
8.77
3.03
-2.88
-8.85
-14.53
-19.29
-22.47
-23.75
-23.36
-21.95
-20.34
-19.20
-18.93
-19.74
-21.68
-24.55
-27.79
-30.59
-32.11
-31.98
-30.64
-29.46
-30.21
-34.26
-41.67
-50.96
-59.39
-63.99
-62.65
-54.89
-41.82
-25.71
-8.94
6.70
20.30
31.53
40.12
45.57
47.36
45.44
40.65
34.70
29.53
26.53
26.04
27.39
29.34
30.80
31.40
31.55
32.23
34.37
38.22
43.11
47.52
49.73
48.45
43.25
34.61
23.55
11.30
-0.99
-12.17
-21.20
-27.18
-29.76
-29.38
-27.24
-24.82
-23.19
-22.61
-22.56
-22.35
-21.63
-20.74
-20.40
-21.22
-23.35
-26.40
-29.75
-32.83
-35.31
-37.01
-37.69
-37.04
-34.78
-30.82
-25.38
-18.91
-12.01
-5.23
0.96
6.13
9.92
12.24
13.25
13.47
13.53
13.86
14.45
14.93
14.80
13.78
12.13
10.52
9.74
10.28
12.08
14.59
17.07
19.08
20.61
22.09
23.89
26.04
28.05
29.08
28.39
25.73
21.50
16.47
11.35
6.49
1.86
-2.75
-7.36
-11.69
-15.33
-18.02
-19.84
-21.18
-22.46
-23.90
-25.52
-27.25
-29.18
-31.62
-34.90
-39.10
-43.90
-48.72
-52.92
-56.04
-57.64
-57.16
-53.93
-47.38
-37.55
-25.48
-13.04
-2.25
5.64
10.60
13.63
16.01
18.47
20.87
22.58
23.07
22.37
21.14
20.17
19.94
20.49
21.46
22.39
23.00
23.16
22.83
21.96
20.52
18.60
16.49
14.70
13.80
14.18
15.95
18.80
22.14
25.25
27.50
28.52
28.26
26.88
24.61
21.53
17.63
12.81
7.03
0.44
-6.56
-13.38
-19.36
-23.96
-27.04
-28.95
-30.49
-32.58
-35.88
-40.35
-45.31
-49.63
-52.22
-52.33
-49.68
-44.30
-36.50
-26.75
-15.80
-4.73
5.29
13.25
18.72
21.94
23.52
24.22
24.49
24.50
24.24
23.70
22.98
22.21
21.49
20.85
20.30
19.94
19.87
20.16
20.78
21.56
22.39
23.27
24.30
25.56
26.85
27.77
27.85
26.85
24.81
22.04
18.84
15.36
11.63
7.73
3.87
0.47
-2.11
-3.80
-4.88
-5.92
-7.47
-9.84
-12.92
-16.36
-19.78
-22.98
-26.08
-29.39
-33.28
-37.88
-42.94
-47.82
-51.69
-53.65
-52.97
-49.14
-42.01
-31.88
-19.69
-6.95
4.49
12.93
17.35
17.71
14.95
10.66
6.48
3.56
2.42
2.97
4.80
7.44
10.49
13.78
17.36
21.25
25.24
28.79
31.22
32.07
31.38
29.68
27.80
26.64
26.53
26.94
26.86
25.53
22.79
19.06
15.05
11.28
8.52
7.23
7.42
8.84
11.34
14.99
19.79
25.59
31.89
38.89
46.47
53.91
59.93
63.70
65.36
65.83
66.72
69.79
77.96
93.53
116.92
145.96
176.60
204.00
223.80
233.62
227.61
206.28
177.73
153.37
140.18
137.75
141.73
146.86
150.71
152.78
153.99
153.98
151.06
142.57
126.75
103.96
76.37
47.25
19.48
-4.42
-23.73
-39.78
-55.19
-72.25
-91.78
-113.08
-134.53
-154.59
-171.99
-186.63
-199.71
-213.27
-229.26
-248.91
-272.61
-299.71
-328.49
-355.72
-377.28
-389.27
-389.31
-377.37
-355.87
-328.89
-300.79
-274.88
-252.52
-233.34
-215.97
-198.84
-180.73
-160.86
-138.91
-114.96
-89.52
-63.46
-37.99
-14.49
5.64
21.19
31.49
36.72
37.96
37.10
36.24
37.09
40.30
45.40
51.01
55.62
58.28
59.09
59.01
59.24
60.44
62.30
63.85
64.13
63.03
61.46
60.81
61.99
64.54
66.64
65.77
59.97
48.81
33.62
16.97
1.69
-10.12
-17.52
-20.91
-21.66
-21.53
-22.08
-24.26
-28.14
-33.09
-38.06
-41.87
-43.52
-42.19
-37.30
-28.55
-15.92
0.33
19.65
41.33
64.49
87.96
110.19
129.18
142.85
149.59
148.78
141.10
128.38
112.98
97.07
82.08
68.46
55.95
44.14
32.86
22.41
13.49
6.73
2.50
0.66
0.79
2.45
5.33
9.14
13.42
17.45
20.34
21.46
20.81
19.07
17.37
16.76
17.86
20.67
24.74
29.38
33.89
37.58
39.93
40.71
40.20
39.06
38.06
37.62
37.52
36.97
35.04
31.13
25.15
17.34
7.98
-2.77
-14.64
-26.86
-38.07
-46.54
-50.85
-50.55
-46.36
-39.73
-32.20
-24.79
-17.91
-11.64
-5.99
-1.10
2.98
6.35
9.28
11.87
13.88
14.74
13.95
11.57
8.44
5.88
5.01
6.16
8.67
11.33
13.15
13.90
14.15
14.74
16.19
18.29
20.34
21.59
21.69
20.89
19.63
18.14
16.22
13.46
9.74
5.44
1.32
-2.04
-4.81
-7.84
-12.12
-17.85
-23.98
-28.48
-29.44
-26.34
-20.62
-15.11
-12.62
-14.38
-19.48
-25.50
-30.04
-32.15
-32.75
-33.81
-36.89
-42.06
-47.83
-52.21
-54.12
-54.08
-53.78
-54.78
-57.36
-60.40
-62.36
-62.73
-62.63
-64.19
-68.83
-75.89
-82.39
-84.44
-79.32
-66.93
-49.88
-32.12
-17.10
-6.57
-0.42
2.49
3.50
3.49
2.84
1.66
-0.00
-2.12
-4.60
-7.28
-9.88
-12.20
-14.35
-16.86
-20.60
-26.40
-34.57
-44.75
-55.87
-66.45
-74.84
-79.53
-79.47
-74.46
-65.40
-54.25
-43.27
-33.95
-26.07
-17.61
-5.58
12.47
37.08
66.47
97.03
124.51
145.23
156.96
159.21
153.12
141.22
126.73
112.69
101.06
92.19
85.13
78.51
71.56
64.62
58.71
54.61
52.14
50.23
47.66
43.88
39.44
35.53
33.09
32.09
31.50
29.91
26.37
20.92
14.58
8.72
4.19
0.80
-2.79
-8.37
-17.15
-28.82
-41.30
-51.57
-56.93
-56.31
-50.60
-42.06
-32.95
-24.51
-16.65
-8.54
0.46
10.11
19.36
26.84
31.52
32.95
31.40
27.57
22.52
17.38
13.07
10.04
8.19
7.06
6.21
5.66
5.79
7.09
9.51
12.29
14.19
14.11
11.75
7.74
3.32
-0.41
-3.06
-5.08
-7.33
-10.54
-14.82
-19.58
-23.99
-27.44
-29.94
-32.01
-34.30
-36.94
-39.35
-40.48
-39.53
-36.51
-32.46
-28.93
-27.05
-26.81
-27.10
-26.35
-23.52
-18.59
-12.38
-5.80
0.84
7.96
16.10
25.07
33.64
39.95
42.58
41.43
37.84
33.89
31.21
30.24
30.19
29.82
28.30
25.75
23.09
21.36
21.14
22.32
24.24
26.10
27.34
27.71
27.25
26.14
24.53
22.53
20.14
17.35
14.23
11.04
8.06
5.47
3.16
0.65
-2.62
-6.91
-11.98
-17.08
-21.44
-24.67
-27.06
-29.41
-32.55
-36.93
-42.34
-47.98
-52.74
-55.48
-55.41
-52.28
-46.54
-39.19
-31.52
-24.57
-18.78
-13.93
-9.37
-4.58
0.59
5.80
10.51
14.34
17.21
19.34
21.02
22.42
23.49
24.09
24.10
23.56
22.71
21.88
21.33
21.22
21.54
22.19
23.06
24.06
25.09
25.98
26.40
25.99
24.46
21.80
18.28
14.34
10.40
6.67
3.20
0.00
-2.86
-5.24
-7.02
-8.25
-9.07
-9.70
-10.41
-11.51
-13.46
-16.77
-21.95
-29.19
-38.29
-48.58
-59.17
-69.03
-77.21
-82.84
-85.15
-83.57
-77.79
-67.98
-54.84
-39.70
-24.26
-10.31
0.78
8.51
13.40
16.87
20.49
25.31
31.29
37.40
42.29
45.06
45.78
45.34
44.76
44.57
44.50
43.83
41.93
38.73
34.77
30.81
27.46
24.90
23.01
21.62
20.71
20.40
20.74
21.52
22.20
22.14
20.86
18.22
14.45
9.98
5.24
0.51
-4.13
-8.73
-13.38
-18.03
-22.46
-26.34
-29.32
-31.37
-32.90
-34.76
-37.95
-43.08
-49.90
-57.15
-63.00
-65.73
-64.43
-59.35
-51.53
-42.13
-31.93
-21.25
-10.35
0.12
8.98
15.02
17.69
17.64
16.46
15.94
17.06
19.56
22.31
24.13
24.60
24.25
24.10
24.92
26.77
29.04
30.98
32.18
32.70
32.87
32.84
32.43
31.14
28.51
24.55
19.79
15.15
11.60
9.66
9.23
9.61
9.83
9.10
7.14
4.20
0.79
-2.67
-6.13
-9.79
-13.83
-18.24
-22.76
-27.14
-31.37
-35.61
-40.01
-44.28
-47.65
-49.07
-47.64
-43.01
-35.41
-25.53
-14.25
-2.52
8.66
18.22
25.15
28.71
28.71
25.64
20.54
14.72
9.41
5.45
3.15
2.30
2.42
3.09
4.18
5.94
8.74
12.75
17.64
22.71
27.13
30.38
32.29
32.96
32.49
30.85
28.04
24.31
20.26
16.68
14.11
12.55
11.38
9.78
7.20
3.59
-0.69
-5.18
-9.64
-14.16
-18.93
-23.99
-29.13
-34.00
-38.38
-42.37
-46.32
-50.58
-55.15
-59.45
-62.54
-63.44
-61.58
-57.04
-50.44
-42.50
-33.72
-24.15
-13.61
-2.16
9.53
20.13
28.15
32.54
33.27
31.32
28.23
25.37
23.45
22.47
22.05
21.95
22.25
23.28
25.13
27.46
29.47
30.44
30.12
28.90
27.50
26.40
25.39
23.64
20.24
14.83
7.99
1.08
-4.45
-7.78
-9.13
-9.65
-10.81
-13.68
-18.53
-24.83
-31.60
-37.92
-43.31
-47.93
-52.41
-57.44
-63.28
-69.37
-74.38
-76.64
-74.87
-68.70
-58.81
-46.54
-33.20
-19.68
-6.37
6.42
18.17
28.01
35.15
39.37
41.20
41.81
42.41
43.67
45.47
47.15
47.92
47.44
45.93
44.07
42.56
41.77
41.58
41.39
40.59
38.83
36.26
33.44
31.01
29.41
28.55
27.96
26.99
25.19
22.51
19.17
15.58
12.03
8.45
4.44
-0.58
-7.03
-14.83
-23.22
-31.04
-37.19
-41.32
-44.03
-46.60
-50.25
-55.44
-61.53
-67.08
-70.58
-71.08
-68.52
-63.46
-56.56
-48.26
-38.71
-28.04
-16.57
-4.95
5.94
15.28
22.47
27.26
29.79
30.49
29.99
29.03
28.24
28.10
28.84
30.51
32.87
35.53
37.92
39.49
39.91
39.17
37.59
35.61
33.62
31.68
29.67
27.38
24.70
21.75
18.72
15.71
12.63
9.23
5.19
0.34
-5.29
-11.37
-17.43
-22.90
-27.34
-30.59
-32.87
-34.73
-36.87
-39.90
-44.04
-49.03
-54.12
-58.25
-60.37
-59.71
-55.97
-49.35
-40.40
-29.85
-18.47
-7.04
3.64
12.75
19.66
24.11
26.42
27.31
27.60
27.75
27.69
27.00
25.43
23.24
21.27
20.57
21.75
24.65
28.39
31.79
34.03
34.85
34.52
33.48
32.07
30.34
28.26
25.80
23.01
19.93
16.51
12.62
8.21
3.50
-1.11
-5.25
-8.81
-12.13
-15.71
-20.03
-25.23
-31.14
-37.46
-43.96
-50.48
-56.73
-62.02
-65.30
-65.43
-61.60
-53.80
-42.78
-29.81
-16.30
-3.57
7.42
16.03
22.11
26.04
28.71
31.17
34.13
37.56
40.64
42.30
41.86
39.48
36.10
32.82
30.30
28.46
26.81
25.00
23.26
22.30
22.81
24.84
27.60
29.84
30.42
28.98
25.94
22.19
18.49
15.06
11.66
7.91
3.59
-1.17
-6.09
-10.98
-15.86
-20.82
-25.85
-30.71
-35.15
-39.17
-43.23
-48.01
-53.97
-60.83
-67.43
-72.16
-73.57
-70.98
-64.63
-55.35
-44.03
-31.33
-17.72
-3.79
9.51
20.93
29.38
34.43
36.56
36.88
36.56
36.23
35.83
34.91
33.24
31.27
30.06
30.64
33.29
37.18
40.69
42.23
41.07
37.75
33.69
30.42
28.84
28.90
29.79
30.48
30.14
28.39
25.17
20.59
14.90
8.42
1.62
-4.90
-10.64
-15.35
-19.14
-22.43
-25.83
-29.79
-34.55
-40.10
-46.32
-53.18
-60.70
-68.80
-77.00
-84.22
-88.86
-89.27
-84.35
-74.11
-59.74
-43.12
-26.22
-10.47
3.40
15.17
24.84
32.36
37.71
40.97
42.45
42.60
41.84
40.46
38.74
37.06
35.96
35.99
37.36
39.70
42.13
43.64
43.67
42.37
40.50
38.87
37.84
37.10
35.93
33.65
30.16
25.90
21.60
17.84
14.68
11.81
8.72
5.13
1.07
-3.14
-7.09
-10.51
-13.44
-16.24
-19.46
-23.69
-29.19
-35.81
-43.02
-50.19
-56.90
-62.96
-68.21
-72.12
-73.69
-71.75
-65.60
-55.55
-42.90
-29.45
-16.67
-5.25
4.86
13.94
22.00
28.69
33.46
36.12
36.90
36.37
35.10
33.37
31.27
29.00
27.12
26.45
27.68
30.85
35.15
39.14
41.34
40.90
37.93
33.38
28.54
24.38
21.31
19.22
17.74
16.56
15.42
14.01
11.91
8.67
4.12
-1.42
-7.19
-12.33
-16.28
-19.06
-21.21
-23.46
-26.44
-30.53
-35.89
-42.47
-50.02
-57.96
-65.20
-70.36
-71.96
-68.99
-61.26
-49.51
-35.25
-20.30
-6.34
5.45
14.57
21.17
25.81
29.13
31.60
33.34
34.20
33.95
32.63
30.68
28.84
27.90
28.33
30.14
32.86
35.93
38.84
41.32
43.20
44.20
43.85
41.66
37.55
31.99
26.02
20.79
16.97
14.38
12.16
9.27
5.10
-0.11
-5.50
-10.06
-13.29
-15.44
-17.38
-19.99
-23.67
-28.13
-32.70
-36.88
-40.75
-45.00
-50.44
-57.40
-65.41
-73.20
-79.17
-81.99
-81.00
-76.21
-68.08
-57.20
-44.15
-29.58
-14.37
0.41
13.62
24.35
32.14
37.08
39.63
40.44
40.10
39.13
37.94
36.88
36.19
35.90
35.83
35.60
34.89
33.65
32.24
31.33
31.57
33.27
36.12
39.25
41.50
41.85
39.83
35.65
29.99
23.77
17.73
12.35
7.80
4.03
0.86
-2.01
-4.97
-8.28
-11.96
-15.67
-18.94
-21.42
-23.23
-25.00
-27.50
-31.21
-35.99
-41.22
-46.20
-50.65
-54.74
-58.71
-62.28
-64.41
-63.63
-58.76
-49.73
-37.66
-24.51
-12.11
-1.57
7.07
14.33
20.80
26.65
31.61
35.25
37.31
37.89
37.28
35.90
34.08
32.17
30.50
29.37
28.94
29.14
29.65
30.08
30.12
29.76
29.17
28.67
28.49
28.70
29.11
29.34
28.93
27.48
24.89
21.31
17.13
12.84
8.75
5.00
1.52
-1.87
-5.43
-9.37
-13.78
-18.52
-23.21
-27.27
-30.19
-31.91
-32.90
-34.14
-36.60
-40.84
-46.57
-52.79
-58.04
-60.84
-60.04
-55.00
-45.70
-32.84
-17.82
-2.56
10.94
21.16
27.43
29.98
29.73
27.78
25.03
22.07
19.26
16.92
15.35
14.81
15.39
16.92
19.03
21.35
23.57
25.52
27.12
28.25
28.82
28.70
27.87
26.29
23.95
20.85
17.09
12.91
8.68
4.82
1.55
-1.25
-4.07
-7.50
-11.95
-17.29
-22.84
-27.61
-30.79
-32.21
-32.48
-32.92
-34.85
-39.12
-45.67
-53.56
-61.40
-67.86
-72.00
-73.28
-71.37
-66.02
-57.16
-45.16
-30.99
-16.21
-2.57
8.56
16.65
22.02
25.53
28.02
29.95
31.33
31.95
31.77
31.07
30.38
30.18
30.72
31.80
33.11
34.38
35.56
36.75
37.99
38.99
39.19
38.03
35.29
31.27
26.68
22.26
18.49
15.40
12.69
10.03
7.16
3.98
0.36
-3.82
-8.67
-14.08
-19.69
-24.93
-29.30
-32.67
-35.27
-37.57
-39.99
-42.67
-45.53
-48.48
-51.62
-55.21
-59.49
-64.22
-68.47
-70.72
-69.36
-63.41
-52.98
-39.35
-24.62
-10.90
0.42
8.94
15.22
20.12
24.31
27.98
30.80
32.38
32.56
31.51
29.68
27.68
26.15
25.75
27.00
30.04
34.41
39.06
42.75
44.51
44.16
42.22
39.46
36.35
32.86
28.68
23.72
18.36
13.29
8.98
5.19
1.11
-4.16
-10.83
-18.08
-24.42
-28.40
-29.45
-28.13
-25.83
-23.99
-23.55
-24.75
-27.40
-31.20
-35.91
-41.23
-46.50
-50.61
-52.31
-50.63
-45.39
-37.22
-27.23
-16.54
-5.90
4.35
13.95
22.54
29.58
34.55
37.19
37.64
36.44
34.30
31.94
29.94
28.74
28.64
29.76
32.01
35.12
38.54
41.63
43.75
44.41
43.39
40.77
36.81
31.84
26.07
19.61
12.68
5.76
-0.30
-4.58
-6.50
-6.28
-5.02
-4.41
-5.90
-10.11
-16.51
-23.71
-30.09
-34.64
-37.36
-39.20
-41.61
-45.82
-52.37
-60.86
-70.08
-78.37
-84.10
-86.01
-83.50
-76.69
-66.33
-53.61
-39.91
-26.57
-14.63
-4.77
2.88
8.65
13.15
17.01
20.59
23.87
26.46
28.01
28.43
28.13
27.89
28.48
30.34
33.42
37.26
41.13
44.14
45.47
44.42
40.75
35.06
28.76
23.84
22.08
24.19
29.25
34.90
38.33
37.54
32.27
24.17
16.10
10.90
10.24
14.00
20.40
26.80
30.65
30.30
25.19
15.61
2.08
-14.98
-35.21
-57.76
-80.75
-101.08
-115.00
-119.21
-112.01
-93.85
-67.11
-35.06
-0.81
33.19
65.13
93.21
115.37
129.35
133.42
127.10
111.68
90.06
66.03
43.18
24.10
9.82
-0.10
-7.02
-12.43
-17.28
-21.63
-24.74
-25.70
-24.07
-20.31
-15.72
-11.90
-10.10
-10.66
-13.06
-16.22
-19.09
-21.15
-22.58
-23.99
-26.00
-28.92
-32.49
-36.15
-39.34
-41.78
-43.59
-45.06
-46.44
-47.60
-47.99
-46.75
-43.02
-36.32
-26.76
-15.14
-2.73
9.05
19.09
26.79
32.18
35.64
37.58
38.12
37.14
34.55
30.64
26.23
22.49
20.43
20.44
22.07
24.27
25.90
26.28
25.46
24.12
23.10
22.95
23.51
23.85
22.68
18.79
11.67
1.82
-9.30
-19.77
-27.98
-33.24
-36.05
-37.70
-39.51
-42.09
-45.11
-47.61
-48.81
-48.65
-47.99
-48.00
-49.35
-51.52
-52.87
-51.19
-44.81
-33.54
-18.77
-2.89
11.66
23.41
32.22
38.83
44.09
48.21
50.63
50.62
47.97
43.45
38.56
34.63
32.09
30.35
28.31
25.23
21.44
18.11
16.58
17.51
20.42
23.97
26.63
27.30
25.67
22.07
17.15
11.59
5.92
0.43
-4.76
-9.62
-14.19
-18.48
-22.45
-26.05
-29.33
-32.32
-35.02
-37.26
-38.76
-39.31
-38.99
-38.17
-37.38
-36.95
-36.64
-35.68
-33.03
-27.94
-20.26
-10.57
0.07
10.59
20.16
28.31
34.74
39.24
41.58
41.65
39.53
35.65
30.70
25.54
21.01
17.67
15.84
15.47
16.30
17.91
19.85
21.63
22.84
23.15
22.37
20.53
17.78
14.39
10.61
6.59
2.43
-1.87
-6.25
-10.66
-14.98
-19.15
-23.20
-27.20
-31.27
-35.50
-39.86
-44.26
-48.51
-52.37
-55.55
-57.68
-58.34
-57.09
-53.54
-47.44
-38.82
-28.07
-15.90
-3.35
8.45
18.45
25.98
30.83
33.31
33.97
33.46
32.22
30.53
28.53
26.39
24.43
23.17
23.08
24.36
26.79
29.73
32.39
34.17
34.86
34.65
33.90
32.86
31.55
29.77
27.36
24.34
20.91
17.27
13.49
9.40
4.83
-0.21
-5.36
-10.07
-13.91
-16.97
-19.96
-23.93
-29.80
-37.77
-47.19
-56.65
-64.60
-69.75
-71.53
-69.97
-65.46
-58.48
-49.35
-38.32
-25.73
-12.21
1.33
13.77
24.09
31.64
36.25
38.31
38.52
37.64
36.17
34.27
31.83
28.82
25.56
22.80
21.41
21.93
24.16
27.15
29.65
30.75
30.33
29.08
28.00
27.76
28.30
28.93
28.76
27.25
24.50
21.01
17.27
13.41
9.21
4.36
-1.13
-6.75
-11.71
-15.36
-17.68
-19.33
-21.26
-24.18
-28.16
-32.63
-36.80
-40.28
-43.29
-46.53
-50.59
-55.42
-60.19
-63.54
-64.23
-61.65
-55.91
-47.63
-37.52
-26.21
-14.23
-2.20
9.06
18.64
25.84
30.34
32.39
32.58
31.65
30.16
28.52
26.95
25.60
24.59
24.05
24.02
24.47
25.32
26.40
27.53
28.52
29.14
29.14
28.34
26.76
24.60
22.26
20.11
18.38
17.00
15.60
13.70
10.94
7.17
2.48
-2.78
-8.23
-13.43
-17.98
-21.60
-24.19
-25.91
-27.17
-28.53
-30.50
-33.44
-37.49
-42.57
-48.41
-54.55
-60.29
-64.66
-66.61
-65.17
-59.90
-50.97
-39.22
-25.89
-12.24
0.73
12.39
22.35
30.30
35.92
38.92
39.24
37.22
33.63
29.50
25.81
23.29
22.19
22.37
23.44
24.91
26.41
27.70
28.73
29.53
30.17
30.57
30.59
29.98
28.53
26.26
23.37
20.27
17.34
14.77
12.55
10.43
8.19
5.68
2.91
0.04
-2.80
-5.62
-8.52
-11.72
-15.39
-19.51
-23.88
-28.19
-32.19
-35.84
-39.36
-43.16
-47.51
-52.42
-57.40
-61.58
-64.04
-64.08
-61.49
-56.43
-49.18
-39.86
-28.48
-15.19
-0.72
13.45
25.38
33.39
36.76
36.11
33.09
29.51
26.63
24.75
23.47
22.37
21.53
21.51
22.91
25.76
29.26
32.12
33.31
32.56
30.52
28.26
26.55
25.48
24.56
23.27
21.55
19.95
19.10
19.21
19.71
19.50
17.62
13.85
8.78
3.42
-1.39
-5.39
-8.75
-11.77
-14.52
-16.91
-18.87
-20.65
-22.84
-25.99
-30.29
-35.34
-40.22
-43.79
-45.02
-43.10
-37.63
-28.67
-16.90
-3.72
9.00
19.38
26.15
29.03
28.74
26.55
23.67
20.85
18.31
15.98
13.80
11.96
10.72
10.27
10.50
11.13
11.83
12.48
13.25
14.36
15.90
17.54
18.67
18.57
16.86
13.66
9.61
5.54
2.10
-0.54
-2.74
-5.17
-8.48
-12.96
-18.49
-24.56
-30.57
-36.09
-40.98
-45.36
-49.48
-53.52
-57.48
-61.20
-64.39
-66.72
-67.83
-67.36
-64.93
-60.26
-53.17
-43.79
-32.53
-20.21
-7.88
3.30
12.33
18.64
22.28
23.88
24.36
24.61
25.05
25.59
25.84
25.50
24.64
23.77
23.51
24.23
25.89
28.06
30.26
32.20
33.82
35.18
36.22
36.66
36.12
34.35
31.34
27.35
22.76
17.90
13.01
8.26
3.80
-0.32
-4.20
-8.13
-12.50
-17.39
-22.56
-27.35
-31.15
-33.75
-35.62
-37.74
-41.07
-45.97
-51.82
-57.28
-60.73
-61.03
-57.80
-51.36
-42.44
-31.77
-19.94
-7.49
4.87
16.29
25.86
32.88
37.07
38.66
38.26
36.65
34.56
32.52
30.88
29.80
29.33
29.43
30.07
31.20
32.70
34.50
36.43
38.35
40.08
41.38
41.97
41.49
39.60
36.18
31.43
25.90
20.37
15.59
11.93
9.30
7.20
4.91
1.77
-2.61
-8.31
-15.02
-22.18
-29.05
-34.90
-39.26
-42.14
-44.10
-46.03
-48.81
-52.84
-57.71
-62.35
-65.32
-65.40
-61.98
-55.18
-45.67
-34.35
-22.13
-9.82
1.82
12.15
20.65
27.08
31.52
34.30
35.96
36.94
37.51
37.67
37.18
35.73
33.17
29.74
26.18
23.51
22.63
23.90
26.91
30.72
34.24
36.73
37.98
38.16
37.46
35.90
33.36
29.78
25.45
20.94
16.82
13.39
10.41
7.32
3.56
-1.01
-6.12
-11.12
-15.43
-18.81
-21.45
-23.87
-26.63
-30.12
-34.42
-39.33
-44.36
-48.91
-52.26
-53.56
-52.01
-47.05
-38.63
-27.34
-14.34
-1.08
11.08
21.19
28.74
33.64
36.00
36.09
34.30
31.13
27.23
23.27
19.89
17.56
16.51
16.70
17.93
19.77
21.77
23.56
25.00
26.28
27.70
29.39
31.05
31.92
31.10
28.04
22.94
16.73
10.69
5.75
2.16
-0.64
-3.47
-6.91
-10.98
-15.22
-19.12
-22.47
-25.51
-28.66
-32.24
-36.26
-40.42
-44.45
-48.29
-52.16
-56.42
-61.18
-66.14
-70.44
-72.86
-72.12
-67.35
-58.36
-45.92
-31.51
-16.98
-3.92
6.78
15.07
21.45
26.51
30.57
33.56
35.26
35.57
34.82
33.71
33.06
33.48
35.11
37.69
40.67
43.54
45.93
47.64
48.51
48.32
46.88
44.14
40.38
36.20
32.35
29.30
27.01
24.86
22.03
17.95
12.73
7.13
2.18
-1.40
-3.64
-5.34
-7.58
-11.09
-15.86
-21.14
-25.99
-29.81
-32.72
-35.42
-38.74
-43.05
-48.10
-53.18
-57.66
-61.24
-64.08
-66.35
-67.85
-67.78
-65.02
-58.65
-48.46
-35.18
-20.22
-5.24
8.43
19.89
28.70
34.66
37.70
38.01
36.17
33.23
30.48
29.04
29.42
31.40
34.17
36.80
38.68
39.71
40.24
40.68
41.16
41.50
41.31
40.35
38.68
36.74
35.03
33.80
32.79
31.40
29.00
25.37
20.84
16.17
12.03
8.68
5.75
2.60
-1.33
-6.13
-11.36
-16.35
-20.56
-23.81
-26.36
-28.56
-30.72
-32.84
-34.84
-36.66
-38.52
-40.84
-44.07
-48.39
-53.60
-59.12
-64.25
-68.42
-71.29
-72.63
-72.07
-68.94
-62.41
-51.89
-37.54
-20.47
-2.67
13.65
26.70
35.65
40.68
42.70
42.77
41.76
40.13
38.12
36.01
34.17
33.07
33.04
34.04
35.68
37.36
38.64
39.39
39.82
40.23
40.75
41.20
41.12
40.05
37.81
34.54
30.69
26.72
22.89
19.25
15.71
12.21
8.82
5.74
3.08
0.82
-1.27
-3.51
-6.14
-9.19
-12.47
-15.75
-18.83
-21.70
-24.51
-27.45
-30.58
-33.97
-37.62
-41.67
-46.33
-51.72
-57.61
-63.19
-67.17
-68.05
-64.71
-56.83
-45.13
-31.24
-17.21
-4.84
4.82
11.72
16.58
20.43
24.07
27.73
31.11
33.65
34.96
35.09
34.49
33.73
33.20
32.92
32.62
32.02
31.07
30.05
29.43
29.56
30.41
31.53
32.23
31.86
30.09
26.96
22.84
18.21
13.43
8.72
4.14
-0.18
-4.03
-7.11
-9.21
-10.56
-11.85
-14.05
-17.97
-23.75
-30.65
-37.38
-42.79
-46.42
-48.85
-51.23
-54.70
-59.60
-65.38
-70.86
-74.80
-76.33
-75.03
-70.76
-63.45
-53.06
-39.86
-24.71
-9.11
5.16
16.56
24.36
28.80
30.82
31.50
31.57
31.17
30.13
28.36
26.18
24.29
23.48
24.12
26.04
28.65
31.31
33.70
35.86
37.99
40.08
41.74
42.34
41.37
38.80
35.27
31.78
29.17
27.68
26.73
25.25
22.22
17.30
10.94
4.09
-2.36
-8.13
-13.57
-19.28
-25.52
-31.89
-37.44
-41.25
-42.99
-43.24
-43.23
-44.30
-47.30
-52.19
-58.16
-63.91
-68.17
-69.91
-68.58
-64.03
-56.43
-46.24
-34.10
-20.85
-7.47
5.05
15.87
24.49
30.80
35.03
37.42
38.17
37.26
34.71
30.78
26.15
21.75
18.51
16.94
16.97
18.06
19.58
21.16
22.81
24.79
27.24
29.96
32.38
33.87
34.00
32.80
30.61
27.94
25.10
22.11
18.81
15.02
10.79
6.40
2.27
-1.31
-4.32
-7.15
-10.36
-14.47
-19.62
-25.45
-31.21
-36.08
-39.56
-41.69
-43.06
-44.50
-46.75
-50.12
-54.46
-59.14
-63.20
-65.54
-65.08
-61.04
-53.25
-42.22
-29.12
-15.39
-2.41
8.93
18.29
25.74
31.55
35.97
39.14
41.09
41.82
41.42
40.12
38.27
36.35
34.74
33.76
33.49
33.88
34.78
36.06
37.65
39.41
41.11
42.35
42.71
41.90
39.92
37.07
33.82
30.56
27.47
24.44
21.20
17.48
13.22
8.61
4.03
-0.14
-3.70
-6.75
-9.67
-12.93
-16.87
-21.48
-26.37
-30.88
-34.45
-36.92
-38.72
-40.75
-43.93
-48.70
-54.65
-60.55
-64.71
-65.55
-62.06
-54.24
-42.89
-29.44
-15.47
-2.34
9.14
18.60
26.07
31.69
35.48
37.37
37.33
35.60
32.78
29.72
27.25
25.87
25.67
26.34
27.52
28.96
30.66
32.75
35.29
38.04
40.32
41.08
39.11
33.41
23.65
10.50
-4.35
-18.47
-29.46
-35.65
-36.66
-33.45
-27.77
-21.55
-16.23
-12.50
-10.45
-9.84
-10.41
-12.09
-14.95
-19.08
-24.56
-31.26
-38.80
-46.58
-53.88
-59.97
-64.42
-67.02
-67.68
-66.15
-61.94
-54.50
-43.62
-29.88
-14.63
0.31
13.29
23.44
30.75
35.87
39.52
42.09
43.53
43.53
41.79
38.36
33.67
28.41
23.49
19.66
17.51
17.26
18.76
21.57
25.11
28.77
32.05
34.56
35.98
36.03
34.53
31.46
27.14
22.12
17.08
12.55
8.72
5.41
2.33
-0.76
-3.88
-6.88
-9.63
-12.29
-15.21
-18.77
-23.06
-27.74
-32.18
-35.88
-38.77
-41.36
-44.52
-49.08
-55.34
-62.92
-70.73
-77.25
-80.92
-80.56
-75.63
-66.37
-53.62
-38.71
-23.09
-8.16
4.94
15.42
22.93
27.58
29.92
30.80
31.08
31.32
31.66
31.82
31.49
30.68
29.93
30.16
32.21
36.40
42.16
48.26
53.27
56.23
56.95
55.91
53.90
51.45
48.64
45.15
40.67
35.27
29.43
23.82
18.88
14.54
10.31
5.66
0.37
-5.18
-10.25
-14.13
-16.52
-17.70
-18.37
-19.29
-21.00
-23.72
-27.38
-31.78
-36.72
-42.03
-47.59
-53.24
-58.79
-63.85
-67.82
-69.84
-68.96
-64.47
-56.25
-44.92
-31.76
-18.23
-5.59
5.45
14.74
22.46
28.82
33.85
37.42
39.44
39.96
39.26
37.87
36.37
35.23
34.77
35.04
35.93
37.22
38.70
40.19
41.56
42.74
43.63
44.09
43.93
43.01
41.33
38.99
36.18
33.03
29.50
25.33
20.28
14.30
7.77
1.47
-3.66
-6.98
-8.44
-8.73
-8.94
-10.01
-12.30
-15.46
-18.71
-21.30
-22.97
-23.97
-24.96
-26.58
-29.35
-33.55
-39.22
-46.06
-53.26
-59.39
-62.64
-61.40
-54.95
-43.87
-29.97
-15.51
-2.34
8.66
17.65
25.27
32.01
37.70
41.64
42.90
40.91
35.73
28.02
18.92
9.69
1.56
-4.55
-8.06
-8.82
-7.20
-3.88
0.34
4.67
8.58
11.76
14.08
15.53
16.15
16.02
15.22
13.86
11.97
9.53
6.52
2.98
-0.93
-4.97
-8.83
-12.24
-15.03
-17.14
-18.69
-20.04
-21.70
-24.23
-28.08
-33.37
-39.86
-46.97
-53.87
-59.69
-63.64
-65.14
-63.96
-60.20
-54.26
-46.64
-37.75
-27.81
-16.97
-5.47
6.12
16.92
25.94
32.43
36.18
37.51
37.13
35.70
33.65
31.18
28.38
25.51
23.05
21.56
21.48
22.81
25.18
28.05
31.02
34.07
37.44
41.31
45.37
48.69
50.02
48.34
43.47
36.28
28.35
21.33
16.15
12.78
10.31
7.61
3.84
-1.18
-7.01
-12.97
-18.49
-23.33
-27.45
-30.92
-33.76
-35.99
-37.81
-39.69
-42.29
-46.16
-51.39
-57.31
-62.65
-65.82
-65.45
-60.82
-52.13
-40.37
-27.05
-13.80
-1.96
7.64
14.80
19.79
23.21
25.68
27.71
29.58
31.39
33.11
34.67
36.01
37.09
37.88
38.41
38.69
38.79
38.82
38.95
39.35
40.03
40.72
40.89
39.82
36.97
32.20
25.96
19.13
12.68
7.23
2.87
-0.82
-4.37
-7.97
-11.37
-13.93
-15.17
-15.14
-14.64
-14.85
-16.83
-20.96
-26.68
-32.87
-38.35
-42.54
-45.65
-48.46
-51.78
-55.84
-60.09
-63.38
-64.42
-62.29
-56.71
-47.91
-36.52
-23.29
-9.10
4.99
17.81
28.16
35.26
38.99
39.98
39.38
38.34
37.52
36.94
36.15
34.68
32.48
30.03
28.16
27.61
28.63
30.88
33.57
35.92
37.44
38.06
38.02
37.57
36.78
35.47
33.39
30.41
26.71
22.65
18.68
15.05
11.68
8.22
4.22
-0.60
-6.10
-11.77
-16.92
-21.01
-23.97
-26.23
-28.61
-31.87
-36.34
-41.80
-47.55
-52.81
-57.09
-60.32
-62.71
-64.28
-64.56
-62.58
-57.17
-47.68
-34.46
-18.97
-3.31
10.54
21.39
29.03
34.03
37.05
38.48
38.33
36.57
33.53
30.05
27.28
26.11
26.77
28.69
30.79
32.02
31.86
30.46
28.52
26.87
26.05
26.08
26.43
26.32
25.11
22.73
19.63
16.53
14.01
12.07
10.13
7.39
3.32
-1.98
-7.88
-13.68
-18.99
-23.98
-29.00
-34.18
-39.17
-43.27
-45.98
-47.43
-48.48
-50.30
-53.68
-58.55
-63.94
-68.41
-70.65
-70.06
-66.70
-61.02
-53.46
-44.16
-33.08
-20.40
-6.81
6.40
17.78
26.34
31.97
35.44
37.84
39.92
41.71
42.65
42.17
40.28
37.76
35.71
34.95
35.58
37.03
38.58
39.84
40.98
42.36
44.08
45.73
46.53
45.84
43.55
40.10
36.24
32.41
28.56
24.25
19.07
13.08
6.92
1.48
-2.61
-5.35
-7.33
-9.37
-12.00
-15.15
-18.36
-21.10
-23.35
-25.64
-28.86
-33.73
-40.33
-47.98
-55.54
-61.85
-66.14
-68.18
-67.98
-65.63
-61.11
-54.40
-45.73
-35.80
-25.64
-16.31
-8.45
-2.05
3.46
8.69
13.92
18.84
22.75
25.02
25.55
24.86
23.91
23.58
24.37
26.27
28.87
31.73
34.55
37.19
39.58
41.51
42.70
42.90
41.98
40.06
37.44
34.47
31.38
28.22
24.83
21.01
16.66
11.86
6.90
2.19
-1.94
-5.36
-8.25
-11.00
-14.06
-17.63
-21.61
-25.58
-28.99
-31.49
-33.13
-34.41
-36.19
-39.35
-44.44
-51.40
-59.48
-67.41
-73.69
-77.04
-76.66
-72.36
-64.46
-53.65
-40.81
-26.89
-12.88
0.31
11.95
21.51
28.75
33.60
36.10
36.40
34.88
32.36
30.00
29.14
30.75
34.92
40.79
46.72
51.09
53.01
52.76
51.52
50.75
51.37
53.32
55.62
56.98
56.40
53.55
48.78
42.80
36.30
29.70
23.27
17.25
12.05
7.97
5.12
2.98
0.68
-2.76
-7.95
-14.72
-22.26
-29.43
-35.42
-40.12
-44.13
-48.31
-53.16
-58.55
-63.63
-67.37
-68.96
-68.10
-64.85
-59.38
-51.81
-42.16
-30.66
-17.83
-4.69
7.46
17.30
23.70
25.96
23.99
18.54
11.16
4.10
-0.32
-0.44
4.13
12.28
21.82
30.19
35.25
35.85
32.10
25.14
16.87
9.34
4.24
2.39
3.54
6.58
10.01
12.60
13.74
13.61
12.73
11.54
10.15
8.27
5.54
1.81
-2.69
-7.53
-12.23
-16.53
-20.45
-24.19
-27.98
-31.87
-35.84
-39.90
-44.18
-48.90
-54.19
-59.72
-64.63
-67.59
-67.26
-62.76
-54.07
-42.06
-28.15
-13.91
-0.63
10.87
20.19
27.20
31.90
34.45
35.15
34.58
33.42
32.34
31.76
31.80
32.24
32.75
33.16
33.53
34.15
35.34
37.12
39.10
40.51
40.55
38.72
35.09
30.20
24.83
19.60
14.79
10.32
5.94
1.46
-3.11
-7.54
-11.61
-15.18
-18.32
-21.24
-24.23
-27.55
-31.25
-35.24
-39.21
-42.84
-45.98
-48.77
-51.67
-55.18
-59.49
-64.25
-68.41
-70.66
-69.82
-65.35
-57.48
-47.04
-35.07
-22.44
-9.73
2.67
14.40
24.92
33.64
40.02
43.70
44.68
43.33
40.27
36.43
32.79
30.21
29.28
30.07
32.20
35.03
37.88
40.26
41.95
42.92
43.20
42.80
41.72
40.02
37.85
35.38
32.72
29.78
26.39
22.46
18.06
13.52
9.29
5.59
2.33
-0.92
-4.70
-9.29
-14.57
-20.00
-24.95
-28.93
-31.92
-34.25
-36.58
-39.53
-43.53
-48.67
-54.67
-60.88
-66.27
-69.55
-69.39
-64.83
-55.69
-42.66
-27.32
-11.59
2.73
14.49
23.27
29.31
33.16
35.36
36.36
36.45
35.95
35.22
34.67
34.67
35.39
36.77
38.44
39.90
40.65
40.44
39.41
38.04
37.03
36.88
37.66
38.85
39.56
38.92
36.46
32.36
27.29
22.09
17.35
13.14
9.14
4.96
0.37
-4.46
-9.20
-13.60
-17.69
-21.78
-26.24
-31.23
-36.60
-41.98
-46.99
-51.42
-55.16
-58.09
-59.85
-59.93
-57.81
-53.24
-46.38
-37.70
-27.87
-17.51
-7.18
2.65
11.47
18.78
24.19
27.54
28.99
28.89
27.71
25.89
23.80
21.72
19.92
18.54
17.65
17.19
17.09
17.39
18.20
19.67
21.77
24.26
26.61
28.28
28.89
28.41
27.06
25.13
22.77
19.89
16.31
12.00
7.18
2.30
-2.18
-6.10
-9.66
-13.31
-17.40
-21.97
-26.65
-30.93
-34.57
-37.74
-41.05
-45.23
-50.76
-57.59
-65.09
-72.15
-77.43
-79.58
-77.55
-70.82
-59.65
-45.15
-29.06
-13.37
0.22
10.70
17.85
22.12
24.33
25.43
26.18
27.06
28.19
29.38
30.31
30.75
30.78
30.80
31.37
32.92
35.47
38.62
41.64
43.77
44.49
43.66
41.55
38.73
35.79
33.13
30.76
28.38
25.45
21.57
16.72
11.30
5.97
1.34
-2.34
-5.36
-8.46
-12.47
-18.05
-25.23
-33.40
-41.49
-48.27
-52.88
-55.16
-55.68
-55.46
-55.59
-56.93
-59.84
-64.18
-69.23
-73.75
-76.10
-74.62
-68.20
-56.79
-41.49
-24.22
-6.96
8.88
22.55
33.82
42.41
47.87
49.85
48.57
45.20
41.53
39.31
39.36
41.26
43.69
45.30
45.56
44.98
44.69
45.61
47.94
50.93
53.48
54.65
54.14
52.16
49.16
45.43
41.04
36.01
30.55
25.09
20.09
15.77
11.88
7.89
3.30
-2.06
-7.88
-13.54
-18.50
-22.48
-25.56
-28.07
-30.40
-32.89
-35.86
-39.58
-44.20
-49.71
-55.72
-61.49
-65.95
-68.01
-66.76
-61.76
-53.20
-41.86
-28.97
-15.83
-3.58
7.09
15.87
22.76
27.82
31.05
32.40
31.95
30.04
27.37
24.85
23.30
23.16
24.32
26.17
27.89
28.73
28.41
27.22
25.84
25.06
25.36
26.65
28.26
29.27
28.94
27.01
23.81
20.04
16.36
13.09
10.03
6.76
2.94
-1.46
-6.15
-10.75
-15.11
-19.41
-24.03
-29.19
-34.72
-40.03
-44.51
-47.86
-50.39
-52.87
-55.97
-59.81
-63.64
-66.09
-65.72
-61.60
-53.62
-42.49
-29.37
-15.48
-1.95
10.30
20.54
28.25
33.27
35.85
36.64
36.48
36.04
35.68
35.34
34.83
33.95
32.73
31.34
29.98
28.68
27.27
25.55
23.48
21.27
19.33
18.04
17.43
17.15
16.59
15.20
12.72
9.27
5.06
0.17
-5.67
-12.90
-21.70
-31.55
-41.18
-48.96
-53.66
-55.01
-53.99
-52.22
-51.21
-51.63
-53.04
-54.37
-54.52
-53.14
-50.68
-48.03
-45.88
-44.17
-42.06
-38.39
-32.34
-23.85
-13.62
-2.73
7.91
17.81
26.82
34.84
41.52
46.37
49.01
49.48
48.31
46.20
43.60
40.60
37.13
33.36
29.97
27.89
27.77
29.59
32.65
36.06
39.33
42.53
45.96
49.50
52.31
53.05
50.72
45.31
37.99
30.51
24.25
19.61
15.94
12.14
7.45
1.81
-4.14
-9.57
-13.95
-17.24
-19.86
-22.35
-25.08
-28.11
-31.18
-33.92
-36.17
-38.20
-40.69
-44.43
-49.93
-56.96
-64.55
-71.23
-75.55
-76.54
-73.90
-67.84
-58.81
-47.32
-33.97
-19.66
-5.61
6.85
16.67
23.47
27.68
30.25
32.09
33.75
35.18
36.03
35.99
35.08
33.76
32.61
32.17
32.68
34.06
36.06
38.32
40.46
42.13
43.03
42.94
41.86
39.96
37.52
34.87
32.24
29.67
27.07
24.19
20.82
16.86
12.40
7.73
3.25
-0.78
-4.30
-7.53
-10.81
-14.34
-18.05
-21.50
-24.23
-26.00
-27.10
-28.27
-30.35
-33.86
-38.71
-44.28
-49.65
-53.97
-56.50
-56.65
-53.85
-47.61
-37.77
-24.76
-9.80
5.30
18.60
28.56
34.46
36.46
35.43
32.58
29.03
25.64
22.90
20.98
19.84
19.31
19.17
19.23
19.38
19.60
20.06
20.98
22.50
24.51
26.55
27.91
27.93
26.22
22.96
18.77
14.47
10.66
7.46
4.51
1.27
-2.57
-6.81
-10.78
-13.77
-15.53
-16.55
-17.83
-20.38
-24.56
-29.90
-35.32
-39.85
-43.18
-45.80
-48.58
-52.02
-55.70
-58.27
-58.02
-53.67
-45.04
-33.12
-19.61
-6.22
5.87
16.13
24.50
31.00
35.53
37.91
38.20
36.82
34.64
32.54
31.20
30.67
30.53
30.20
29.48
28.73
28.78
30.45
33.69
37.30
38.98
36.39
28.34
15.61
0.60
-13.74
-25.18
-32.82
-36.82
-37.70
-35.68
-30.80
-23.47
-15.00
-7.45
-2.90
-2.49
-5.98
-12.03
-19.02
-25.75
-31.73
-36.82
-41.03
-44.35
-46.97
-49.31
-51.96
-55.32
-59.22
-62.92
-65.23
-64.92
-61.17
-53.76
-43.18
-30.48
-17.14
-4.76
5.33
12.40
16.57
18.80
20.50
22.94
26.70
31.40
35.82
38.51
38.45
35.58
30.95
26.34
23.58
23.90
27.52
33.63
40.79
47.40
52.22
54.62
54.54
52.39
48.75
44.20
39.19
34.06
29.00
24.09
19.21
14.12
8.62
2.62
-3.76
-10.08
-15.74
-20.24
-23.32
-25.17
-26.40
-27.85
-30.40
-34.65
-40.78
-48.37
-56.56
-64.19
-70.16
-73.66
-74.34
-72.15
-67.18
-59.46
-49.03
-36.12
-21.40
-6.01
8.66
21.30
31.12
37.90
41.90
43.66
43.70
42.49
40.47
38.17
36.07
34.64
34.10
34.46
35.54
37.08
38.84
40.66
42.45
44.08
45.43
46.30
46.48
45.69
43.67
40.16
35.10
28.79
21.90
15.45
10.42
7.34
6.00
5.51
4.74
2.81
-0.50
-4.79
-9.34
-13.58
-17.28
-20.52
-23.52
-26.45
-29.45
-32.70
-36.54
-41.16
-46.43
-51.60
-55.47
-56.68
-54.34
-48.30
-39.19
-28.13
-16.35
-4.85
5.73
14.96
22.57
28.25
31.71
32.75
31.41
28.12
23.70
19.28
15.98
14.66
15.58
18.34
22.07
25.71
28.38
29.67
29.67
28.82
27.64
26.53
25.57
24.55
23.07
20.75
17.35
12.88
7.61
1.98
-3.51
-8.43
-12.55
-15.96
-19.01
-22.19
-25.86
-30.08
-34.59
-38.99
-43.00
-46.68
-50.42
-54.65
-59.52
-64.66
-69.30
-72.54
-73.67
-72.37
-68.62
-62.53
-54.12
-43.38
-30.45
-15.84
-0.52
14.22
27.11
37.24
44.28
48.36
49.92
49.35
46.90
42.70
36.99
30.31
23.61
18.08
14.73
14.10
15.99
19.53
23.51
26.79
28.66
29.09
28.63
28.04
27.96
28.54
29.37
29.66
28.57
25.59
20.68
14.33
7.27
0.17
-6.49
-12.54
-18.00
-22.93
-27.35
-31.32
-34.91
-38.30
-41.69
-45.31
-49.22
-53.33
-57.44
-61.25
-64.42
-66.54
-67.09
-65.50
-61.33
-54.45
-45.15
-34.09
-22.02
-9.59
2.72
14.53
25.26
34.08
40.08
42.69
42.04
39.08
35.25
31.94
30.05
29.68
30.39
31.51
32.59
33.42
34.03
34.53
35.01
35.56
36.32
37.43
38.86
40.20
40.66
39.31
35.48
29.20
21.35
13.36
6.60
1.85
-1.05
-2.99
-5.00
-7.74
-11.21
-14.93
-18.40
-21.49
-24.58
-28.30
-33.00
-38.51
-44.08
-48.89
-52.44
-54.90
-56.87
-58.89
-60.98
-62.34
-61.60
-57.37
-48.96
-36.74
-22.22
-7.53
5.24
14.79
20.97
24.68
27.23
29.66
32.25
34.49
35.73
35.72
34.99
34.60
35.41
37.55
40.25
42.40
43.26
42.99
42.44
42.53
43.54
44.86
45.33
44.00
40.67
35.91
30.66
25.65
21.02
16.56
12.01
7.42
3.11
-0.58
-3.65
-6.56
-9.96
-14.28
-19.41
-24.68
-29.19
-32.33
-34.14
-35.37
-37.15
-40.46
-45.52
-51.58
-57.11
-60.25
-59.58
-54.56
-45.66
-33.97
-20.85
-7.49
5.20
16.39
25.35
31.44
34.32
34.29
32.19
29.24
26.53
24.74
23.96
23.78
23.71
23.31
22.49
21.34
20.15
19.24
18.95
19.56
21.20
23.77
26.79
29.40
30.54
29.30
25.38
19.34
12.50
6.42
2.15
-0.27
-1.79
-3.81
-7.48
-13.09
-20.04
-27.15
-33.21
-37.53
-40.00
-41.07
-41.43
-41.78
-42.56
-43.94
-45.72
-47.26
-47.59
-45.68
-40.53
-31.65
-19.35
-4.98
9.33
21.19
28.84
31.74
30.75
27.67
24.28
21.74
20.30
19.55
19.06
18.75
18.93
19.97
21.85
23.94
25.18
24.65
22.06
17.99
13.73
10.56
9.13
9.04
9.02
7.72
4.79
1.02
-1.96
-2.99
-2.11
-0.77
-0.92
-3.73
-8.89
-14.77
-19.43
-21.74
-21.84
-20.85
-20.18
-20.74
-22.89
-26.58
-31.76
-38.40
-46.13
-54.01
-60.51
-63.90
-62.85
-56.97
-46.83
-33.87
-19.87
-6.50
5.07
14.33
21.35
26.56
30.48
33.49
35.64
36.69
36.21
33.90
29.94
25.16
21.02
18.98
19.96
23.75
28.97
33.60
35.84
34.89
31.33
26.76
22.87
20.68
20.04
19.97
19.31
17.50
14.91
12.49
11.12
11.06
11.71
12.02
10.98
8.20
4.00
-0.80
-5.30
-8.90
-11.55
-13.67
-15.98
-19.21
-23.78
-29.69
-36.47
-43.38
-49.58
-54.39
-57.32
-58.05
-56.35
-52.06
-45.19
-36.13
-25.58
-14.51
-3.88
5.59
13.51
19.76
24.27
26.93
27.69
26.71
24.50
21.97
20.21
20.07
21.84
25.16
29.21
33.06
36.15
38.38
40.07
41.61
43.13
44.33
44.60
43.35
40.33
35.87
30.78
26.06
22.48
20.32
19.27
18.64
17.65
15.76
12.79
8.88
4.20
-1.20
-7.43
-14.47
-21.98
-29.02
-34.42
-37.12
-36.84
-34.26
-30.88
-28.43
-28.25
-30.86
-36.01
-42.95
-50.79
-58.62
-65.46
-70.12
-71.34
-68.12
-60.17
-48.23
-33.96
-19.40
-6.30
4.48
12.98
19.83
25.64
30.60
34.35
36.35
36.16
33.64
28.89
22.11
13.58
3.98
-5.42
-12.80
-16.24
-14.53
-7.76
2.58
14.15
24.68
32.78
38.16
41.31
42.84
42.95
41.39
37.82
32.35
25.74
19.26
14.00
10.42
8.03
5.81
2.83
-1.07
-5.23
-8.56
-10.34
-10.79
-11.05
-12.58
-16.29
-22.00
-28.56
-34.57
-39.12
-42.27
-44.86
-47.82
-51.42
-54.98
-57.02
-55.86
-50.38
-40.50
-27.24
-12.44
1.87
13.98
22.96
28.66
31.63
32.70
32.57
31.67
30.14
28.00
25.42
22.81
20.64
19.21
18.41
17.73
16.55
14.61
12.39
11.02
11.85
15.64
22.09
29.72
36.42
40.24
40.11
36.05
29.05
20.55
11.96
4.36
-1.63
-5.82
-8.51
-10.32
-12.05
-14.32
-17.29
-20.59
-23.55
-25.66
-26.98
-28.11
-29.99
-33.44
-38.78
-45.73
-53.58
-61.44
-68.44
-73.80
-76.79
-76.67
-72.79
-64.77
-52.78
-37.67
-20.89
-4.27
10.40
21.85
29.52
33.64
34.97
34.38
32.57
29.97
26.88
23.73
21.07
19.52
19.36
20.31
21.59
22.36
22.28
21.79
21.94
23.69
27.28
31.86
35.80
37.55
36.33
32.58
27.59
22.85
19.27
16.97
15.32
13.61
11.38
8.60
5.50
2.24
-1.25
-5.23
-9.99
-15.52
-21.42
-26.96
-31.36
-34.12
-35.35
-35.78
-36.53
-38.69
-42.82
-48.69
-55.23
-60.95
-64.33
-64.27
-60.33
-52.79
-42.45
-30.45
-17.99
-6.14
4.35
13.10
20.07
25.47
29.49
32.22
33.65
33.81
32.95
31.64
30.59
30.34
31.01
32.23
33.37
33.95
34.02
34.17
35.16
37.38
40.46
43.40
45.00
44.54
42.14
38.61
34.98
31.93
29.48
27.13
24.27
20.59
16.36
12.19
8.77
6.50
5.27
4.59
3.73
2.04
-0.86
-4.90
-9.65
-14.52
-18.81
-22.18
-24.53
-26.12
-27.46
-29.13
-31.67
-35.26
-39.85
-44.95
-49.86
-53.62
-55.22
-53.79
-48.94
-40.97
-30.78
-20.04
-10.46
-3.56
0.09
0.77
-0.38
-1.96
-2.78
-2.22
-0.21
2.77
5.89
8.41
9.97
10.77
11.65
13.54
17.11
22.37
28.72
35.31
41.31
46.28
50.00
52.31
52.84
51.27
47.63
42.56
36.83
30.83
24.47
17.03
8.12
-2.12
-12.82
-23.08
-32.39
-40.93
-49.15
-57.29
-65.04
-71.71
-76.72
-79.83
-81.13
-80.60
-77.98
-72.81
-64.76
-54.19
-42.07
-29.65
-17.83
-7.00
2.82
11.51
18.32
22.20
22.45
19.53
15.21
12.03
12.15
16.22
23.04
30.26
35.58
38.00
38.22
37.93
38.75
41.23
44.74
48.05
50.18
50.93
50.70
50.13
49.37
47.94
45.04
40.02
32.91
24.60
16.53
10.12
6.16
4.48
4.00
3.25
0.97
-3.42
-9.68
-16.95
-24.20
-30.70
-36.32
-41.53
-47.11
-53.70
-61.38
-69.43
-76.48
-80.94
-81.51
-77.64
-69.55
-57.92
-43.62
-27.47
-10.44
6.03
19.99
29.35
32.81
30.57
24.61
17.96
13.42
12.41
14.53
18.08
21.10
22.46
22.11
20.71
19.01
17.32
15.66
14.07
12.91
12.71
13.75
15.64
17.36
17.70
15.93
12.23
7.62
3.35
0.28
-1.55
-2.81
-4.41
-6.93
-10.39
-14.24
-17.61
-19.74
-20.11
-18.62
-15.54
-11.49
-7.34
-4.17
-3.05
-4.84
-9.86
-17.67
-27.06
-36.23
-43.22
-46.46
-45.17
-39.62
-30.90
-20.47
-9.64
0.72
10.26
18.85
26.36
32.53
37.06
39.82
40.93
40.76
39.70
38.09
36.17
34.21
32.68
32.12
33.00
35.41
38.86
42.47
45.19
46.24
45.38
42.94
39.61
36.12
33.01
30.48
28.43
26.61
24.70
22.44
19.63
16.15
12.03
7.48
2.89
-1.31
-4.85
-7.72
-10.21
-12.64
-15.20
-17.82
-20.31
-22.65
-25.21
-28.69
-33.72
-40.47
-48.30
-55.85
-61.52
-64.04
-62.98
-58.72
-52.15
-44.13
-35.10
-25.11
-14.11
-2.45
8.89
18.49
25.01
27.80
27.24
24.54
21.20
18.45
16.95
16.83
17.94
20.05
22.79
25.62
27.80
28.61
27.80
25.84
23.82
22.99
24.00
26.52
29.24
30.53
29.22
25.20
19.44
13.48
8.70
5.72
4.23
3.29
1.84
-0.83
-4.87
-9.90
-15.26
-20.27
-24.49
-27.77
-30.35
-32.72
-35.42
-38.89
-43.32
-48.54
-54.09
-59.32
-63.46
-65.68
-65.18
-61.27
-53.63
-42.54
-28.96
-14.45
-0.79
10.58
18.88
24.12
26.86
27.73
27.06
24.78
20.68
14.95
8.38
2.46
-1.11
-1.07
2.90
10.02
18.70
27.12
33.73
37.50
37.81
34.28
26.84
16.00
3.20
-9.32
-19.04
-24.11
-23.99
-19.62
-12.78
-5.30
1.69
7.80
13.04
17.25
19.89
20.15
17.46
11.99
4.75
-2.66
-8.69
-12.47
-14.20
-15.03
-16.59
-20.06
-25.58
-32.16
-38.11
-41.94
-42.94
-41.32
-37.67
-32.42
-25.53
-16.72
-6.07
5.67
17.11
26.78
33.77
37.96
39.89
40.28
39.67
38.34
36.47
34.41
32.66
31.70
31.72
32.58
33.91
35.36
36.71
37.84
38.57
38.59
37.62
35.62
33.01
30.52
28.86
28.31
28.45
28.36
27.06
23.98
19.28
13.65
8.02
3.04
-1.17
-4.98
-8.89
-13.22
-17.90
-22.57
-26.90
-30.81
-34.51
-38.28
-42.13
-45.76
-48.65
-50.53
-51.63
-52.63
-54.08
-55.92
-57.12
-56.07
-51.29
-42.30
-29.90
-15.92
-2.41
9.03
17.71
23.61
27.09
28.53
28.37
27.20
25.79
24.91
25.05
26.10
27.46
28.42
28.60
28.21
27.93
28.51
30.22
32.51
34.02
33.03
28.20
19.30
7.62
-4.25
-13.30
-17.31
-15.79
-10.17
-3.08
2.96
6.66
8.30
9.18
10.44
12.26
13.70
13.45
10.76
5.95
0.19
-5.39
-10.52
-15.97
-22.95
-32.11
-42.79
-53.18
-61.05
-64.81
-64.17
-60.01
-53.74
-46.46
-38.72
-30.56
-22.05
-13.51
-5.51
1.48
7.39
12.52
17.28
21.76
25.59
28.06
28.49
26.72
23.28
19.25
15.89
14.16
14.43
16.49
19.69
23.30
26.69
29.44
31.41
32.58
33.02
32.80
31.84
29.90
26.57
21.57
15.03
7.67
0.65
-4.84
-8.13
-9.46
-9.77
-10.19
-11.49
-13.79
-16.77
-20.09
-23.72
-27.94
-33.01
-38.79
-44.67
-49.80
-53.52
-55.66
-56.55
-56.69
-56.40
-55.55
-53.57
-49.80
-43.74
-35.37
-25.20
-14.16
-3.41
6.00
13.39
18.63
22.00
24.02
25.10
25.42
24.97
23.78
22.14
20.51
19.40
19.02
19.20
19.49
19.52
19.26
19.12
19.71
21.46
24.29
27.48
29.95
30.56
28.58
23.90
17.15
9.53
2.49
-2.69
-5.37
-5.79
-4.99
-4.37
-5.09
-7.58
-11.46
-15.84
-19.93
-23.44
-26.77
-30.64
-35.71
-42.06
-49.13
-55.87
-61.11
-63.94
-63.94
-61.21
-56.22
-49.52
-41.54
-32.42
-22.22
-11.15
0.17
10.69
19.23
24.99
27.90
28.60
28.17
27.56
27.26
27.27
27.36
27.34
27.31
27.50
28.14
29.21
30.48
31.65
32.55
33.20
33.79
34.46
35.16
35.59
35.34
34.04
31.60
28.23
24.34
20.35
16.50
12.80
9.15
5.43
1.69
-1.85
-4.88
-7.17
-8.77
-10.02
-11.58
-14.16
-18.27
-24.00
-30.95
-38.38
-45.38
-51.20
-55.37
-57.71
-58.21
-56.84
-53.49
-47.97
-40.25
-30.52
-19.40
-7.74
3.43
13.20
20.94
26.40
29.74
31.41
32.06
32.32
32.66
33.22
33.79
33.95
33.25
31.49
28.88
26.02
23.73
22.72
23.36
25.46
28.38
31.17
32.85
32.71
30.43
26.20
20.64
14.68
9.29
5.22
2.73
1.47
0.59
-0.98
-4.01
-8.55
-13.93
-19.05
-22.91
-25.19
-26.33
-27.28
-28.96
-31.73
-35.35
-39.22
-42.73
-45.60
-47.81
-49.37
-50.02
-49.10
-45.83
-39.65
-30.59
-19.37
-7.19
4.53
14.59
22.27
27.42
30.41
31.81
32.23
32.09
31.68
31.16
30.68
30.31
30.02
29.65
29.08
28.36
27.85
28.04
29.32
31.58
34.18
36.06
36.24
34.24
30.29
25.24
20.18
16.02
13.14
11.29
9.76
7.69
4.39
-0.36
-6.28
-12.78
-19.14
-24.87
-29.81
-34.13
-38.23
-42.63
-47.84
-54.20
-61.70
-69.72
-77.05
-82.18
-83.63
-80.60
-73.10
-61.95
-48.45
-34.04
-20.05
-7.60
2.49
9.87
14.74
17.89
20.32
22.83
25.49
27.66
28.34
26.80
23.11
18.23
13.71
11.11
11.43
14.77
20.39
26.94
32.94
37.16
38.98
38.46
36.19
33.03
29.69
26.52
23.48
20.31
16.81
13.02
9.21
5.73
2.76
0.17
-2.38
-5.28
-8.65
-12.37
-16.11
-19.63
-22.87
-26.05
-29.48
-33.39
-37.84
-42.68
-47.57
-52.02
-55.42
-57.09
-56.48
-53.36
-47.89
-40.60
-32.10
-22.84
-13.07
-2.96
7.15
16.65
24.73
30.68
34.18
35.44
35.04
33.68
31.98
30.36
29.12
28.43
28.42
29.05
30.14
31.37
32.45
33.24
33.78
34.24
34.74
35.22
35.45
35.15
34.12
32.29
29.77
26.71
23.28
19.56
15.60
11.49
7.41
3.56
0.07
-3.11
-6.23
-9.62
-13.50
-17.75
-21.97
-25.64
-28.43
-30.40
-32.00
-33.87
-36.56
-40.19
-44.41
-48.51
-51.66
-53.09
-52.27
-48.97
-43.22
-35.38
-26.04
-15.96
-5.93
3.42
11.77
19.00
25.15
30.19
33.92
35.96
36.01
34.02
30.41
26.09
22.21
19.74
19.18
20.40
22.80
25.65
28.35
30.53
31.95
32.40
31.72
29.99
27.61
25.25
23.49
22.47
21.73
20.53
18.34
15.28
12.05
9.52
8.11
7.43
6.45
4.15
0.12
-5.22
-10.78
-15.49
-18.84
-21.09
-22.96
-25.29
-28.48
-32.43
-36.64
-40.51
-43.57
-45.41
-45.65
-43.93
-40.00
-33.98
-26.57
-18.93
-12.34
-7.72
-5.24
-4.23
-3.53
-2.05
0.76
4.68
8.87
12.29
14.24
14.65
14.19
13.90
14.73
17.09
20.67
24.64
28.08
30.37
31.45
31.66
31.43
31.00
30.31
29.05
26.96
24.04
20.52
16.76
13.03
9.36
5.53
1.28
-3.44
-8.35
-12.91
-16.59
-19.27
-21.48
-24.31
-28.99
-36.24
-45.77
-56.30
-66.09
-73.67
-78.37
-80.32
-79.86
-77.01
-71.20
-61.74
-48.53
-32.56
-15.84
-0.66
11.30
19.61
24.93
28.43
31.03
32.98
34.02
33.76
32.13
29.62
27.08
25.40
25.11
26.27
28.34
30.54
32.09
32.58
32.06
31.00
29.87
28.97
28.23
27.41
26.32
25.00
23.72
22.73
22.02
21.26
19.99
17.93
15.13
11.92
8.65
5.38
1.89
-2.18
-7.06
-12.55
-18.10
-23.00
-26.72
-29.20
-30.87
-32.52
-34.92
-38.59
-43.51
-49.17
-54.71
-59.11
-61.45
-61.07
-57.67
-51.36
-42.60
-32.11
-20.78
-9.48
1.01
10.11
17.41
22.75
26.15
27.89
28.41
28.28
28.04
28.06
28.46
29.20
30.05
30.77
31.20
31.28
31.07
30.78
30.59
30.70
31.13
31.76
32.36
32.65
32.39
31.45
29.83
27.55
24.69
21.35
17.67
13.84
10.15
6.83
4.04
1.75
-0.27
-2.30
-4.54
-7.04
-9.67
-12.30
-14.90
-17.63
-20.68
-24.22
-28.19
-32.33
-36.36
-40.08
-43.56
-46.92
-50.20
-53.15
-55.22
-55.65
-53.83
-49.48
-42.74
-34.12
-24.32
-14.06
-3.99
5.31
13.39
19.86
24.46
27.12
28.04
27.65
26.57
25.47
24.87
25.03
25.91
27.30
28.93
30.56
32.11
33.53
34.81
35.90
36.74
37.25
37.40
37.10
36.22
34.58
32.08
28.73
24.79
20.67
16.83
13.57
10.94
8.73
6.51
3.78
0.17
-4.48
-9.88
-15.45
-20.40
-24.06
-26.19
-27.09
-27.52
-28.35
-30.23
-33.30
-37.28
-41.57
-45.64
-49.08
-51.76
-53.49
-53.97
-52.67
-48.99
-42.58
-33.66
-23.04
-11.92
-1.46
7.62
15.08
21.08
25.78
29.13
30.88
30.79
28.91
25.76
22.18
19.13
17.28
16.97
18.07
20.21
22.82
25.35
27.37
28.65
29.16
29.04
28.41
27.33
25.78
23.71
21.13
18.12
14.80
11.27
7.66
4.14
0.88
-1.97
-4.38
-6.50
-8.57
-10.84
-13.39
-16.15
-18.96
-21.78
-24.77
-28.20
-32.30
-37.00
-41.86
-46.25
-49.53
-51.36
-51.67
-50.55
-48.03
-43.91
-37.89
-29.74
-19.73
-8.64
2.23
11.50
18.12
21.77
22.91
22.49
21.59
20.90
20.63
20.54
20.31
19.81
19.30
19.21
19.88
21.20
22.62
23.37
22.94
21.46
19.66
18.51
18.67
20.04
21.87
23.09
22.94
21.32
18.75
16.01
13.67
11.81
10.05
7.93
5.22
2.04
-1.24
-4.27
-7.08
-9.96
-13.33
-17.42
-21.98
-26.46
-30.25
-33.11
-35.35
-37.66
-40.72
-44.73
-49.24
-53.27
-55.72
-55.84
-53.45
-48.85
-42.62
-35.33
-27.36
-18.98
-10.46
-2.20
5.20
11.21
15.42
17.80
18.65
18.49
17.86
17.18
16.77
16.76
17.26
18.21
19.37
20.34
20.73
20.32
19.25
18.02
17.25
17.44
18.74
20.90
23.43
25.76
27.46
28.30
28.23
27.32
25.64
23.27
20.22
16.57
12.44
8.10
3.92
0.26
-2.68
-4.98
-7.00
-9.23
-12.11
-15.81
-20.17
-24.76
-29.09
-32.95
-36.43
-39.95
-43.89
-48.28
-52.59
-55.85
-56.98
-55.25
-50.58
-43.51
-34.91
-25.63
-16.26
-7.06
1.83
10.28
18.01
24.64
29.76
33.08
34.49
34.17
32.62
30.52
28.60
27.39
27.10
27.60
28.62
29.89
31.26
32.62
33.85
34.71
34.95
34.48
33.42
32.10
30.80
29.58
28.17
26.07
22.85
18.49
13.46
8.56
4.46
1.35
-1.12
-3.58
-6.49
-9.80
-13.00
-15.48
-17.01
-17.99
-19.22
-21.47
-25.01
-29.42
-33.85
-37.49
-39.83
-40.73
-40.22
-38.28
-34.70
-29.33
-22.25
-13.99
-5.52
2.01
7.62
10.78
11.59
10.72
9.06
7.36
6.03
5.07
4.32
3.76
3.62
4.27
5.90
8.28
10.77
12.70
13.76
14.25
14.87
16.23
18.42
20.87
22.62
22.84
21.28
18.27
14.53
10.69
7.08
3.66
0.32
-2.95
-5.98
-8.50
-10.45
-11.99
-13.60
-15.76
-18.72
-22.37
-26.23
-29.78
-32.73
-35.18
-37.57
-40.36
-43.64
-46.99
-49.54
-50.31
-48.57
-44.06
-37.04
-28.09
-17.94
-7.37
2.84
11.85
18.91
23.50
25.56
25.54
24.31
22.83
21.90
21.83
22.53
23.63
24.73
25.53
25.93
26.00
25.82
25.60
25.53
25.86
26.77
28.22
29.91
31.20
31.32
29.68
26.09
20.90
14.91
9.05
4.01
0.07
-2.98
-5.59
-8.19
-10.94
-13.71
-16.29
-18.61
-20.89
-23.58
-27.05
-31.37
-36.18
-40.90
-45.08
-48.68
-52.12
-55.94
-60.33
-64.83
-68.22
-69.06
-66.20
-59.28
-48.87
-36.14
-22.47
-9.01
3.33
13.93
22.30
28.14
31.42
32.55
32.23
31.29
30.36
29.80
29.69
30.12
31.20
33.08
35.73
38.86
41.93
44.35
45.79
46.23
45.99
45.39
44.59
43.49
41.77
39.15
35.51
31.07
26.26
21.57
17.35
13.74
10.61
7.72
4.84
1.78
-1.55
-5.22
-9.27
-13.71
-18.43
-23.23
-27.82
-32.05
-35.91
-39.64
-43.51
-47.64
-51.72
-55.03
-56.57
-55.48
-51.30
-44.26
-35.12
-24.92
-14.56
-4.64
4.54
12.77
19.80
25.26
28.82
30.39
30.21
28.86
27.01
25.23
23.88
23.12
22.97
23.48
24.65
26.47
28.78
31.27
33.49
34.97
35.38
34.62
32.87
30.55
28.13
25.98
24.33
23.14
22.19
21.12
19.45
16.81
13.05
8.39
3.37
-1.34
-5.25
-8.34
-11.02
-13.92
-17.44
-21.50
-25.54
-28.90
-31.16
-32.50
-33.54
-35.10
-37.76
-41.58
-45.98
-49.97
-52.41
-52.37
-49.37
-43.41
-34.99
-24.85
-13.83
-2.75
7.58
16.41
23.03
26.94
28.01
26.67
23.85
20.76
18.50
17.75
18.58
20.54
22.90
25.02
26.55
27.53
28.26
29.10
30.18
31.38
32.38
32.75
32.20
30.55
27.77
23.98
19.51
14.84
10.59
7.22
4.77
2.69
0.03
-4.06
-9.85
-16.68
-23.23
-28.14
-30.66
-31.08
-30.53
-30.33
-31.36
-33.68
-36.75
-39.85
-42.55
-44.86
-47.00
-48.98
-50.25
-49.83
-46.63
-40.08
-30.43
-18.83
-6.96
3.57
11.82
17.63
21.57
24.48
26.93
29.00
30.31
30.32
28.82
26.10
23.04
20.73
19.97
20.93
23.09
25.46
27.13
27.73
27.55
27.35
27.81
29.04
30.42
30.87
29.46
25.98
21.08
15.99
11.85
9.13
7.51
6.10
4.06
1.03
-2.68
-6.47
-9.81
-12.61
-15.19
-18.00
-21.29
-24.92
-28.40
-31.23
-33.31
-35.03
-37.19
-40.54
-45.27
-50.76
-55.67
-58.48
-58.07
-54.25
-47.69
-39.50
-30.68
-21.72
-12.64
-3.34
6.00
14.75
22.05
27.21
30.11
31.18
31.20
30.92
30.67
30.42
29.91
29.00
27.79
26.61
25.88
25.93
26.80
28.17
29.50
30.23
30.07
29.13
27.82
26.60
25.64
24.67
23.15
20.61
17.00
12.79
8.69
5.35
2.93
1.14
-0.54
-2.58
-5.11
-8.08
-11.31
-14.72
-18.33
-22.13
-26.02
-29.73
-33.01
-35.75
-38.19
-40.82
-44.13
-48.26
-52.75
-56.52
-58.29
-57.11
-52.68
-45.53
-36.61
-26.86
-16.88
-6.96
2.65
11.46
18.72
23.66
25.91
25.76
24.06
21.90
20.13
19.16
18.94
19.25
20.02
21.34
23.34
25.98
28.87
31.35
32.80
32.92
31.91
30.34
28.92
28.08
27.80
27.67
27.14
25.79
23.57
20.71
17.59
14.54
11.71
9.02
6.30
3.47
0.55
-2.26
-4.77
-6.93
-8.91
-11.03
-13.58
-16.67
-20.14
-23.71
-27.16
-30.57
-34.24
-38.49
-43.33
-48.17
-51.99
-53.61
-52.26
-47.76
-40.61
-31.63
-21.65
-11.29
-0.91
9.08
18.17
25.65
30.89
33.58
33.88
32.34
29.60
26.20
22.45
18.55
14.74
11.47
9.22
8.36
8.97
10.79
13.37
16.26
19.15
21.88
24.36
26.43
27.84
28.31
27.63
25.83
23.21
20.27
17.48
15.13
13.11
11.01
8.25
4.37
-0.69
-6.62
-12.78
-18.50
-23.34
-27.11
-29.94
-32.09
-33.87
-35.61
-37.67
-40.46
-44.34
-49.40
-55.11
-60.31
-63.39
-62.93
-58.23
-49.63
-38.44
-26.34
-14.77
-4.59
3.89
10.65
15.63
18.65
19.68
19.04
17.55
16.17
15.61
16.03
17.02
17.99
18.50
18.54
18.43
18.65
19.50
21.07
23.17
25.53
27.77
29.50
30.29
29.81
28.02
25.20
21.94
18.78
16.02
13.55
11.10
8.59
6.13
3.97
2.10
0.02
-3.08
-8.01
-14.94
-23.31
-32.02
-39.91
-46.31
-51.14
-54.72
-57.37
-59.10
-59.66
-58.76
-56.30
-52.39
-47.19
-40.69
-32.69
-23.15
-12.60
-2.25
6.36
12.08
14.76
15.40
15.59
16.64
18.88
21.64
23.82
24.68
24.41
23.91
24.18
25.67
27.96
30.21
31.76
32.58
33.18
34.16
35.64
36.97
37.10
35.15
30.99
25.46
20.07
16.18
14.38
14.18
14.26
13.12
9.90
4.76
-1.22
-6.60
-10.28
-12.00
-12.38
-12.56
-13.65
-16.32
-20.66
-26.33
-32.88
-39.86
-46.83
-53.23
-58.21
-60.80
-60.14
-55.87
-48.31
-38.34
-27.18
-16.00
-5.71
3.14
10.37
16.04
20.36
23.57
25.79
26.91
26.71
25.10
22.38
19.32
17.00
16.37
17.77
20.81
24.55
27.99
30.49
32.04
33.00
33.77
34.49
34.96
34.82
33.74
31.69
28.84
25.56
22.16
18.88
15.82
12.99
10.34
7.78
5.20
2.44
-0.60
-3.97
-7.60
-11.36
-15.07
-18.65
-22.19
-25.97
-30.34
-35.55
-41.57
-47.97
-54.04
-58.95
-62.04
-62.87
-61.24
-57.10
-50.48
-41.56
-30.85
-19.29
-8.14
1.40
8.58
13.34
16.26
18.17
19.69
20.93
21.53
20.99
19.00
15.72
11.79
8.09
5.36
3.90
3.48
3.41
2.92
1.45
-1.17
-4.71
-8.79
-13.12
-17.65
-22.49
-27.82
-33.84
-40.80
-49.02
-58.90
-70.66
-84.07
-98.27
-111.79
-123.05
-130.98
-135.57
-137.96
-140.00
-143.34
-148.54
-154.66
-159.67
-161.47
-159.05
-153.12
-145.60
-138.64
-133.39
-129.44
-125.16
-118.59
-108.19
-93.20
-73.57
-49.60
-21.84
8.86
41.37
74.41
106.84
137.84
166.85
193.38
216.74
236.15
250.95
260.92
266.32
267.63
265.47
260.51
253.57
245.68
237.89
230.90
224.79
219.00
212.62
204.92
195.57
184.76
173.09
161.39
150.53
141.12
133.33
126.64
120.05
112.43
103.09
92.14
80.41
68.90
58.32
48.80
40.10
32.16
25.40
20.67
18.80
20.03
23.89
29.32
35.34
41.47
47.81
54.63
61.76
68.14
72.03
71.49
65.20
53.03
36.25
17.28
-0.80
-14.98
-23.08
-24.42
-20.17
-13.33
-8.08
-8.62
-17.83
-36.18
-61.42
-89.35
-115.14
-134.77
-146.03
-148.73
-144.30
-135.15
-124.06
-113.72
-106.32
-103.21
-104.62
-109.55
-116.09
-121.96
-125.30
-125.22
-121.87
-116.14
-109.09
-101.48
-93.45
-84.46
-73.52
-59.56
-42.03
-21.34
1.02
22.98
42.67
59.33
73.57
86.91
100.75
115.41
129.89
142.26
150.64
153.96
152.10
145.64
135.52
123.03
109.90
98.26
89.98
85.56
83.37
79.60
69.38
48.48
15.07
-29.29
-79.82
-129.83
-172.48
-202.71
-218.37
-220.49
-212.63
-199.63
-186.12
-175.48
-169.25
-167.05
-167.09
-166.80
-163.58
-155.53
-142.07
-124.07
-103.55
-83.00
-64.52
-49.33
-37.77
-29.36
-23.20
-18.19
-13.20
-7.35
-0.28
7.67
15.48
21.89
26.01
27.81
28.36
29.40
32.76
39.41
48.92
59.32
67.68
71.06
67.52
56.76
39.98
19.10
-4.09
-28.29
-52.52
-75.76
-96.77
-114.45
-128.45
-139.36
-148.41
-156.67
-164.28
-170.40
-173.83
-173.93
-171.32
-167.61
-164.49
-162.60
-160.82
-156.53
-146.78
-129.70
-105.44
-76.23
-45.59
-16.99
7.26
26.45
41.08
52.06
60.05
65.44
68.79
71.36
75.13
82.11
93.20
107.37
121.64
132.05
135.22
129.77
117.07
100.80
85.63
75.43
71.94
74.28
79.70
84.96
87.69
87.18
84.21
80.29
76.75
74.16
72.23
70.21
67.29
62.95
56.94
49.35
40.44
30.63
20.50
10.64
1.57
-6.49
-13.68
-20.43
-27.13
-33.84
-39.86
-43.82
-43.98
-39.01
-28.73
-14.48
1.21
15.58
26.69
34.12
38.86
42.50
46.27
50.34
53.93
55.93
55.75
53.75
51.19
49.47
49.45
51.00
53.10
54.44
54.15
52.21
49.47
47.12
46.11
46.61
48.05
49.33
49.26
46.96
42.04
34.82
26.29
17.96
11.35
7.36
5.77
5.21
3.79
-0.01
-6.50
-14.69
-22.85
-29.48
-34.04
-37.11
-39.72
-42.66
-45.97
-49.14
-51.61
-53.50
-55.64
-59.16
-64.59
-71.07
-76.30
-77.30
-71.84
-59.58
-42.43
-23.74
-6.82
6.48
16.40
24.66
33.17
42.73
52.58
60.93
66.07
67.36
65.47
61.87
57.93
54.39
51.35
48.73
46.71
45.73
46.05
47.22
47.87
46.28
41.32
33.19
23.55
14.76
8.71
5.87
5.05
4.12
1.17
-4.60
-12.56
-21.20
-29.01
-35.23
-39.96
-43.69
-46.69
-48.63
-48.78
-46.68
-42.67
-38.06
-34.58
-33.60
-35.45
-39.32
-43.90
-48.10
-51.57
-54.50
-57.12
-58.96
-58.88
-55.59
-48.56
-38.62
-27.77
-18.28
-11.48
-7.23
-4.10
-0.38
4.78
10.96
16.74
20.66
22.10
21.60
20.51
20.21
21.38
23.72
26.28
28.00
28.34
27.46
26.14
25.19
24.97
25.19
25.13
24.17
22.26
20.00
18.30
17.74
18.08
18.26
16.84
12.75
5.87
-2.81
-11.61
-18.78
-23.17
-24.65
-24.03
-22.74
-22.18
-23.21
-25.88
-29.43
-32.76
-34.91
-35.49
-34.72
-33.13
-31.11
-28.49
-24.67
-18.87
-10.79
-0.93
9.36
18.37
24.74
27.98
28.62
27.92
27.14
27.01
27.46
27.90
27.80
27.14
26.62
27.21
29.59
33.67
38.55
42.95
45.84
46.92
46.58
45.53
44.28
42.86
40.94
38.15
34.49
30.51
27.24
25.73
26.61
29.83
34.68
40.15
45.49
50.53
55.79
62.14
70.28
80.36
91.85
103.83
115.38
125.85
134.90
142.46
148.65
154.08
160.11
168.84
182.52
202.48
227.99
255.79
280.66
296.91
300.33
289.51
266.13
234.07
197.98
161.81
128.17
98.19
71.98
49.09
28.78
10.21
-7.54
-25.25
-43.47
-62.28
-81.41
-100.57
-119.65
-139.09
-160.02
-184.14
-213.18
-247.89
-287.06
-327.04
-362.31
-386.99
-396.89
-391.03
-371.95
-344.67
-314.85
-286.99
-263.46
-244.63
-229.68
-217.60
-207.71
-199.68
-193.33
-188.18
-183.28
-177.23
-168.54
-156.10
-139.84
-120.75
-100.69
-81.61
-64.89
-50.98
-39.58
-30.15
-22.42
-16.59
-13.04
-11.85
-12.52
-13.93
-14.83
-14.38
-12.54
-10.05
-8.03
-7.44
-8.66
-11.32
-14.47
-17.08
-18.35
-17.99
-16.18
-13.43
-10.29
-7.24
-4.55
-2.25
-0.15
2.06
4.67
7.71
10.93
13.80
15.78
16.50
15.92
14.28
12.01
9.51
7.05
4.70
2.30
-0.55
-4.34
-9.49
-15.94
-23.14
-30.10
-35.80
-39.66
-41.75
-42.68
-43.12
-43.34
-42.93
-41.01
-36.64
-29.35
-19.53
-8.38
2.53
11.84
18.79
23.32
25.77
26.66
26.54
26.05
25.90
26.47
27.09
25.59
18.51
2.57
-23.33
-56.54
-90.67
-117.30
-128.78
-120.72
-93.01
-49.33
4.34
61.16
114.31
157.65
186.27
197.30
190.73
169.54
138.97
105.13
73.49
47.91
30.34
21.05
19.01
22.19
27.95
33.53
36.65
36.01
31.48
23.82
14.29
4.22
-5.11
-12.50
-16.85
-17.29
-13.50
-5.88
4.47
16.09
27.55
37.87
46.58
53.49
58.54
61.63
62.67
61.76
59.31
55.87
51.89
47.50
42.43
36.23
28.68
20.07
11.28
3.47
-2.35
-5.67
-6.58
-5.61
-3.36
-0.29
3.34
7.33
11.37
14.99
17.63
18.95
18.93
17.96
16.48
14.78
12.78
10.17
6.70
2.54
-1.76
-5.58
-8.61
-11.09
-13.77
-17.47
-22.69
-29.41
-37.11
-44.99
-52.14
-57.59
-60.38
-59.68
-55.09
-46.81
-35.63
-22.65
-8.91
4.79
17.87
29.71
39.47
46.16
49.12
48.48
45.40
41.79
39.60
39.96
42.63
46.14
48.49
48.19
44.98
39.95
34.91
31.48
30.24
30.46
30.49
28.48
23.33
15.29
5.96
-2.38
-7.68
-9.06
-7.31
-4.62
-3.66
-6.45
-13.47
-23.65
-35.02
-45.88
-55.60
-64.54
-73.37
-82.00
-89.03
-92.05
-88.76
-78.24
-61.54
-41.26
-20.39
-1.15
15.65
30.11
42.32
51.65
56.75
56.41
50.45
40.16
27.86
15.78
5.01
-4.79
-14.87
-26.27
-38.87
-51.24
-61.33
-67.54
-69.61
-68.84
-67.51
-67.73
-70.56
-75.64
-81.59
-86.72
-89.71
-89.91
-87.27
-82.17
-75.55
-69.08
-65.19
-66.24
-73.34
-85.12
-97.49
-104.80
-101.81
-85.60
-56.28
-16.43
30.19
79.64
128.25
172.41
208.59
233.88
246.95
248.55
241.23
228.03
211.16
191.52
169.15
144.21
117.77
91.76
68.31
48.99
34.55
25.16
20.90
21.88
27.81
37.56
48.85
58.72
64.45
64.59
59.38
50.56
40.55
31.54
24.91
21.04
19.58
19.64
20.14
19.94
17.98
13.56
6.58
-2.26
-11.58
-19.75
-25.36
-27.74
-27.22
-25.10
-23.37
-24.14
-28.85
-37.69
-49.16
-60.37
-67.88
-68.90
-62.20
-48.40
-29.57
-8.35
12.83
32.31
49.23
63.32
74.56
83.15
89.52
94.30
98.33
102.45
107.36
113.56
121.30
130.64
141.43
153.24
165.37
176.91
187.04
195.42
202.46
209.39
217.58
227.64
238.43
247.02
249.48
242.39
224.29
196.18
161.00
122.22
82.54
43.34
5.04
-32.10
-67.41
-99.77
-128.35
-153.28
-176.04
-199.24
-225.96
-258.78
-298.56
-343.62
-389.37
-429.27
-456.60
-466.66
-458.26
-433.94
-398.73
-358.18
-316.69
-276.79
-239.42
-204.82
-173.25
-145.15
-120.88
-100.31
-82.71
-67.03
-52.30
-38.13
-24.74
-12.99
-3.91
1.91
4.80
5.97
7.16
9.91
14.84
21.37
27.95
32.65
33.91
31.01
24.22
14.56
3.35
-8.36
-20.08
-31.82
-43.77
-55.93
-68.00
-79.68
-90.98
-102.32
-114.09
-126.11
-137.15
-145.00
-147.24
-142.03
-128.93
-108.95
-84.26
-57.51
-31.35
-8.11
10.43
23.08
29.48
30.11
26.23
19.60
12.06
4.97
-1.08
-6.37
-11.64
-17.30
-22.78
-26.10
-24.28
-14.43
5.01
33.43
67.97
104.47
138.71
167.50
189.12
203.09
209.69
209.55
203.59
193.08
179.65
165.04
150.66
137.25
124.85
113.02
101.44
90.22
79.81
70.71
63.04
56.54
50.77
45.54
41.26
38.94
39.95
45.62
56.75
73.28
94.22
117.77
141.77
164.29
184.13
201.00
215.40
228.19
240.24
252.03
263.61
274.51
283.59
288.97
288.14
278.58
258.58
228.06
188.83
144.17
97.76
52.67
10.65
-28.00
-63.93
-98.15
-131.56
-164.70
-197.75
-230.40
-261.77
-290.35
-314.14
-331.18
-340.24
-341.36
-335.96
-326.35
-314.91
-303.46
-293.04
-284.25
-277.67
-274.11
-274.29
-278.24
-284.86
-292.08
-297.64
-299.97
-298.68
-294.24
-287.19
-277.40
-264.06
-246.28
-223.97
-198.42
-172.00
-147.29
-126.05
-108.60
-93.92
-80.28
-66.08
-50.39
-33.03
-14.35
5.12
24.99
45.15
65.80
87.41
110.64
136.42
165.59
198.45
234.19
270.46
303.70
330.00
346.39
351.78
347.15
334.85
317.59
297.46
275.51
252.03
227.03
200.72
173.64
146.58
120.45
96.13
74.53
56.46
42.48
32.61
26.30
22.62
20.68
20.05
21.04
24.43
30.94
40.56
52.19
63.83
73.29
79.01
80.63
78.90
75.20
70.88
66.93
63.95
62.40
62.65
64.90
68.87
73.71
78.13
80.87
81.12
78.84
74.63
69.47
64.33
59.97
56.79
54.65
52.85
50.11
44.96
36.28
23.82
8.40
-8.39
-24.93
-40.42
-55.23
-70.57
-87.83
-107.45
-128.43
-148.55
-165.31
-177.04
-183.46
-185.30
-183.25
-176.80
-163.93
-141.92
-108.89
-64.97
-12.64
44.13
101.10
154.66
202.05
241.16
270.51
289.61
299.40
302.38
301.95
301.14
301.69
303.88
307.08
310.42
313.03
313.80
310.89
301.99
285.14
259.90
228.01
193.04
159.16
129.68
106.08
87.76
72.81
58.85
43.95
27.06
8.06
-12.52
-33.88
-55.37
-76.80
-98.61
-121.80
-147.79
-178.23
-214.34
-256.08
-301.31
-345.57
-382.74
-406.83
-414.11
-404.70
-382.75
-354.92
-327.94
-306.19
-290.39
-277.95
-264.68
-246.87
-222.84
-193.48
-161.76
-131.59
-106.75
-89.86
-81.88
-82.04
-88.18
-97.39
-106.75
-114.09
-118.29
-119.24
-117.49
-113.75
-108.56
-102.11
-94.31
-84.89
-73.60
-60.39
-45.73
-30.80
-17.43
-7.57
-2.53
-2.22
-5.07
-8.49
-9.80
-7.20
-0.25
10.19
22.46
34.72
45.42
53.58
58.80
61.19
61.27
59.80
57.59
55.31
53.27
51.35
49.11
46.08
42.12
37.66
33.70
31.42
31.69
34.63
39.43
44.64
48.68
50.37
49.30
45.80
40.71
34.93
29.12
23.46
17.72
11.49
4.47
-3.36
-11.66
-19.87
-27.39
-33.75
-38.70
-42.21
-44.42
-45.45
-45.33
-43.89
-40.70
-35.37
-27.60
-17.55
-5.72
7.08
20.03
32.42
43.64
53.12
60.32
64.98
67.32
68.18
68.81
70.36
73.39
77.61
82.20
86.29
89.62
92.58
96.06
100.80
107.02
114.23
121.55
128.11
133.39
137.45
140.75
144.06
148.09
153.30
159.65
166.56
172.95
177.54
179.11
176.82
170.19
159.01
143.10
122.32
96.68
66.56
32.75
-3.71
-42.03
-81.91
-123.23
-165.25
-205.64
-240.21
-263.84
-272.31
-264.39
-242.83
-213.73
-184.38
-160.57
-144.73
-135.74
-130.28
-124.99
-118.16
-110.17
-102.80
-97.93
-96.32
-97.27
-98.99
-99.38
-96.94
-91.19
-82.69
-72.62
-62.29
-52.83
-44.97
-39.22
-35.94
-35.49
-38.00
-43.17
-50.13
-57.44
-63.41
-66.43
-65.32
-59.43
-48.73
-33.75
-15.58
4.13
23.27
39.44
50.41
54.51
51.05
40.54
24.69
6.11
-12.04
-26.64
-35.10
-35.82
-28.45
-13.88
5.93
28.27
50.16
68.87
82.41
89.91
91.65
88.89
83.37
76.73
70.19
64.30
59.01
53.94
48.67
43.02
37.20
31.78
27.56
25.29
25.31
27.35
30.54
33.56
35.03
33.91
29.82
23.20
15.16
7.14
0.33
-4.74
-8.37
-11.51
-15.35
-20.74
-27.87
-36.22
-44.74
-52.42
-58.66
-63.58
-67.90
-72.65
-78.64
-86.08
-94.36
-102.18
-107.85
-109.66
-106.38
-97.49
-83.34
-65.08
-44.40
-23.13
-2.83
15.53
31.61
45.43
57.20
67.08
75.17
81.62
86.63
90.33
92.60
93.13
91.53
87.73
82.27
76.24
71.05
67.75
66.76
67.62
69.33
70.68
70.67
68.75
64.82
59.12
52.07
44.15
35.82
27.46
19.40
11.96
5.39
-0.16
-4.76
-8.73
-12.62
-17.00
-22.26
-28.41
-35.03
-41.35
-46.47
-49.59
-50.11
-47.76
-42.59
-34.98
-25.57
-15.22
-4.78
5.05
13.79
21.22
27.21
31.66
34.40
35.28
34.32
31.75
28.02
23.73
19.52
15.99
13.54
12.43
12.61
13.81
15.54
17.16
18.13
18.11
17.03
15.02
12.33
9.12
5.53
1.64
-2.39
-6.35
-9.97
-13.11
-15.86
-18.52
-21.53
-25.22
-29.67
-34.71
-40.00
-45.30
-50.52
-55.72
-60.84
-65.52
-68.97
-70.14
-68.10
-62.28
-52.82
-40.48
-26.51
-12.34
0.69
11.44
19.11
23.31
24.17
22.35
18.95
15.22
12.25
10.65
10.44
11.12
11.98
12.33
11.79
10.23
7.78
4.65
1.21
-2.02
-4.32
-4.90
-3.33
0.29
5.18
10.24
14.47
17.36
18.95
19.50
19.10
17.45
14.02
8.38
0.67
-8.30
-17.32
-25.38
-32.01
-37.52
-42.58
-47.60
-52.26
-55.42
-55.64
-51.88
-44.08
-33.26
-20.98
-8.73
2.61
12.80
21.92
29.95
36.64
41.64
44.79
46.27
46.40
45.38
43.04
39.02
33.10
25.60
17.51
10.22
5.13
3.03
3.90
6.89
10.64
13.83
15.59
15.69
14.56
12.86
11.25
10.19
9.93
10.59
12.18
14.52
16.92
18.18
16.77
11.53
2.30
-9.67
-22.16
-32.87
-40.49
-45.32
-48.95
-53.25
-59.23
-66.28
-72.36
-74.86
-71.69
-62.04
-46.64
-27.41
-6.91
12.15
27.52
37.93
43.40
45.39
46.25
48.45
53.51
61.36
70.41
78.31
82.96
83.40
79.98
74.01
67.05
60.37
54.69
50.29
47.28
45.71
45.53
46.46
47.79
48.52
47.61
44.49
39.28
32.83
26.31
20.68
16.36
13.10
10.26
7.12
3.23
-1.55
-7.13
-13.27
-19.69
-26.16
-32.62
-39.35
-47.05
-56.63
-68.79
-83.39
-99.17
-113.73
-124.25
-128.31
-124.73
-113.91
-97.63
-78.49
-59.12
-41.73
-27.74
-17.76
-11.54
-8.14
-6.04
-3.56
0.68
7.20
15.46
23.95
30.89
34.99
35.96
34.66
32.55
31.09
31.14
32.80
35.58
38.81
41.92
44.64
46.90
48.62
49.51
49.03
46.52
41.59
34.45
26.07
17.88
11.20
6.59
3.53
0.82
-2.76
-7.69
-13.53
-19.33
-24.45
-29.04
-33.98
-40.18
-47.89
-56.32
-63.93
-69.10
-70.75
-68.56
-62.74
-53.63
-41.60
-27.23
-11.64
3.32
15.55
23.37
26.31
25.43
22.79
20.57
20.06
21.22
22.95
23.97
23.64
22.33
21.18
21.33
23.27
26.58
30.22
33.05
34.32
33.78
31.59
28.11
23.72
18.81
13.81
9.12
5.02
1.65
-1.04
-3.16
-4.81
-6.11
-7.29
-8.74
-10.84
-13.75
-17.18
-20.50
-22.98
-24.29
-24.73
-25.22
-26.78
-30.11
-35.15
-41.19
-47.15
-51.90
-54.52
-54.35
-50.88
-43.83
-33.32
-20.06
-5.50
8.50
20.17
28.46
33.26
35.28
35.58
34.95
33.68
31.72
28.99
25.67
22.34
19.66
18.19
18.07
19.07
20.71
22.43
23.76
24.41
24.25
23.35
21.86
20.00
17.93
15.70
13.33
10.73
7.71
4.05
-0.46
-5.86
-11.84
-17.79
-22.91
-26.68
-29.12
-30.94
-33.23
-36.90
-42.19
-48.43
-54.26
-58.10
-58.71
-55.53
-48.81
-39.39
-28.45
-17.23
-6.84
1.93
8.65
13.31
16.26
18.02
19.04
19.59
19.64
19.00
17.55
15.41
13.15
11.71
12.14
15.24
21.19
29.34
38.35
46.58
52.63
55.80
56.20
54.54
51.65
48.09
43.89
38.70
32.09
23.89
14.45
4.60
-4.49
-11.63
-16.02
-17.58
-17.03
-15.77
-15.30
-16.64
-19.82
-23.80
-26.86
-27.33
-24.19
-17.52
-8.54
0.72
7.83
10.55
7.36
-2.00
-16.30
-32.77
-47.71
-57.51
-59.69
-53.75
-41.36
-25.77
-10.75
0.62
6.78
7.98
5.89
2.77
0.59
0.38
2.11
4.97
7.90
10.05
11.11
11.14
10.46
9.34
7.96
6.48
5.16
4.35
4.36
5.07
5.87
5.70
3.58
-0.91
-7.28
-14.30
-20.56
-25.11
-27.86
-29.55
-31.33
-34.08
-38.04
-42.65
-46.73
-48.85
-47.84
-43.10
-34.85
-24.01
-11.95
-0.05
10.66
19.62
26.67
31.74
34.67
35.29
33.58
30.03
25.70
21.94
19.98
20.31
22.59
25.69
28.34
29.74
29.99
30.07
31.27
34.42
39.31
44.61
48.43
49.20
46.38
40.74
33.91
27.51
22.44
18.54
14.87
10.48
4.97
-1.18
-6.95
-11.33
-13.94
-15.22
-16.20
-18.01
-21.35
-26.24
-32.21
-38.57
-44.65
-49.91
-53.69
-55.08
-53.05
-46.82
-36.34
-22.70
-7.82
6.10
17.42
25.52
30.83
34.29
36.74
38.54
39.55
39.40
37.81
34.87
31.12
27.60
25.64
26.44
30.65
37.87
46.40
53.52
56.17
51.95
40.11
21.99
0.82
-19.15
-33.98
-41.27
-40.75
-34.20
-24.48
-14.44
-6.00
-0.05
3.24
3.86
1.81
-2.63
-8.52
-14.24
-18.05
-18.82
-16.64
-12.59
-8.06
-3.77
0.60
6.17
14.07
24.80
38.02
52.87
68.49
84.16
99.37
113.62
126.28
136.89
145.35
152.24
158.61
165.56
173.45
181.55
187.98
190.10
185.23
171.41
147.97
115.64
76.45
33.20
-11.15
-53.93
-92.98
-126.62
-153.53
-172.90
-184.66
-189.79
-190.37
-189.07
-188.42
-189.92
-193.55
-197.94
-201.13
-201.51
-198.58
-193.21
-187.20
-182.64
-181.09
-183.12
-188.09
-194.36
-199.68
-201.92
-199.56
-192.24
-180.83
-167.27
-153.99
-143.16
-135.83
-131.25
-126.71
-118.04
-100.81
-71.93
-30.94
19.39
73.60
124.95
167.26
196.29
210.49
210.72
199.56
180.44
156.96
132.40
109.41
89.77
74.19
62.33
53.02
44.73
36.08
26.26
15.28
3.87
-6.94
-16.34
-24.40
-32.34
-42.24
-55.96
-73.80
-93.42
-109.87
-116.79
-108.60
-82.77
-41.25
9.61
60.71
102.91
129.59
138.35
131.15
113.18
90.79
69.54
52.99
42.42
37.47
37.02
39.81
44.68
50.46
55.89
59.74
61.29
60.59
58.52
56.41
55.35
55.66
56.80
57.66
57.32
55.63
53.42
52.11
52.96
56.28
61.13
65.67
67.95
66.93
62.91
57.31
51.82
47.44
43.80
39.25
31.52
18.86
1.04
-20.29
-41.92
-60.19
-72.32
-77.40
-76.67
-72.81
-68.73
-66.42
-66.38
-67.86
-69.62
-70.74
-70.97
-70.66
-70.28
-70.16
-70.28
-70.38
-69.91
-68.11
-64.14
-57.29
-47.41
-35.06
-21.55
-8.44
3.02
12.18
19.01
23.80
26.83
28.34
28.73
28.71
29.18
30.96
34.29
38.79
43.64
48.12
51.95
55.36
58.58
61.45
63.14
62.53
58.85
52.25
43.88
35.34
27.92
22.05
17.23
12.72
8.15
3.90
0.84
-0.34
0.19
1.25
1.11
-1.65
-7.38
-15.24
-23.67
-31.11
-36.65
-40.20
-42.22
-43.37
-44.21
-45.16
-46.55
-48.58
-51.19
-53.91
-55.78
-55.59
-52.32
-45.62
-35.99
-24.67
-13.16
-2.69
6.09
13.12
18.67
23.04
26.35
28.52
29.50
29.37
28.47
27.34
26.54
26.47
27.23
28.59
30.14
31.47
32.40
33.09
33.94
35.34
37.29
39.28
40.47
40.04
37.70
33.76
28.98
24.10
19.50
15.10
10.68
6.23
2.08
-1.19
-3.21
-4.05
-4.39
-5.15
-7.08
-10.40
-14.68
-19.15
-23.10
-26.24
-28.71
-31.01
-33.66
-36.94
-40.77
-44.77
-48.31
-50.65
-51.01
-48.69
-43.28
-34.80
-23.85
-11.59
0.57
11.22
19.30
24.31
26.25
25.63
23.27
20.05
16.80
14.11
12.35
11.65
12.02
13.35
15.48
18.15
21.02
23.71
25.96
27.59
28.57
28.92
28.58
27.43
25.34
22.29
18.48
14.35
10.43
7.16
4.67
2.68
0.62
-2.07
-5.66
-9.93
-14.21
-17.76
-20.08
-21.28
-21.94
-22.93
-24.95
-28.23
-32.58
-37.49
-42.34
-46.54
-49.50
-50.61
-49.21
-44.83
-37.33
-27.17
-15.40
-3.46
7.16
15.28
20.32
22.29
21.72
19.44
16.37
13.34
11.06
10.11
10.80
13.15
16.77
20.85
24.38
26.44
26.56
24.97
22.44
20.03
18.53
18.21
18.70
19.27
19.14
17.88
15.52
12.46
9.22
6.24
3.71
1.58
-0.41
-2.70
-5.77
-10.00
-15.51
-22.00
-28.70
-34.58
-38.72
-40.67
-40.65
-39.58
-38.60
-38.73
-40.39
-43.30
-46.67
-49.45
-50.67
-49.55
-45.71
-39.12
-30.20
-19.77
-8.94
1.18
9.66
16.01
20.17
22.37
23.02
22.59
21.55
20.39
19.57
19.40
19.94
21.02
22.28
23.37
24.07
24.35
24.23
23.77
23.00
22.05
21.24
20.96
21.58
23.21
25.51
27.77
29.12
28.88
26.86
23.39
19.15
14.84
10.93
7.52
4.47
1.60
-1.17
-3.78
-6.14
-8.25
-10.28
-12.54
-15.39
-18.96
-23.08
-27.35
-31.37
-34.98
-38.30
-41.61
-45.02
-48.19
-50.20
-49.85
-46.16
-38.80
-28.43
-16.49
-4.71
5.45
13.22
18.57
22.02
24.23
25.79
27.13
28.41
29.61
30.45
30.49
29.26
26.55
22.59
18.11
14.10
11.41
10.45
11.06
12.69
14.79
16.98
19.05
20.82
21.97
22.04
20.70
17.92
14.19
10.27
6.86
4.29
2.37
0.57
-1.58
-4.23
-7.10
-9.71
-11.65
-12.90
-13.86
-15.10
-17.19
-20.35
-24.52
-29.34
-34.40
-39.42
-44.27
-49.01
-53.67
-58.05
-61.59
-63.46
-62.81
-59.15
-52.52
-43.55
-33.16
-22.23
-11.45
-1.29
7.85
15.52
21.27
24.89
26.53
26.82
26.57
26.41
26.64
27.09
27.43
27.41
27.11
26.90
27.20
28.27
30.00
31.98
33.76
35.07
35.89
36.44
36.94
37.43
37.73
37.56
36.71
35.21
33.24
31.13
29.09
27.26
25.65
24.21
22.84
21.31
19.15
15.59
9.76
0.99
-10.79
-24.79
-39.44
-52.82
-63.35
-70.27
-73.87
-75.15
-75.31
-75.24
-75.28
-75.32
-75.11
-74.45
-73.13
-70.82
-66.95
-60.83
-52.01
-40.66
-27.85
-15.25
-4.56
3.17
7.98
10.89
13.28
16.16
19.71
23.23
25.81
26.91
26.73
26.07
25.76
26.20
27.15
28.11
28.71
29.07
29.68
31.00
33.04
35.26
36.80
36.89
35.26
32.23
28.46
24.71
21.50
19.04
17.26
15.96
14.89
13.82
12.54
10.82
8.55
5.70
2.44
-0.91
-4.01
-6.66
-8.97
-11.35
-14.36
-18.37
-23.36
-28.82
-34.00
-38.27
-41.43
-43.75
-45.76
-47.84
-49.80
-50.89
-49.99
-46.18
-39.13
-29.46
-18.51
-7.97
0.71
6.74
10.16
11.73
12.63
13.97
16.44
20.14
24.57
28.90
32.42
34.79
36.11
36.77
37.21
37.65
38.07
38.29
38.10
37.36
36.06
34.22
31.90
29.15
26.08
22.82
19.52
16.28
13.17
10.25
7.66
5.53
3.96
2.83
1.88
0.63
-1.29
-4.14
-7.87
-12.18
-16.62
-20.82
-24.58
-27.95
-31.07
-34.00
-36.66
-38.84
-40.37
-41.22
-41.45
-41.05
-39.69
-36.83
-31.93
-24.91
-16.39
-7.62
0.00
5.46
8.54
9.81
10.30
10.95
12.18
13.81
15.25
15.91
15.53
14.36
13.05
12.33
12.67
14.19
16.72
19.98
23.63
27.33
30.66
33.08
34.10
33.51
31.50
28.65
25.58
22.66
19.85
16.91
13.62
10.13
6.83
4.12
2.15
0.66
-0.89
-2.96
-5.73
-9.05
-12.56
-15.91
-18.98
-21.89
-24.92
-28.38
-32.45
-37.11
-42.18
-47.30
-51.96
-55.55
-57.44
-57.07
-54.13
-48.57
-40.71
-31.11
-20.56
-9.94
-0.10
8.25
14.64
18.96
21.45
22.56
22.78
22.54
22.08
21.53
21.05
20.86
21.23
22.38
24.29
26.75
29.38
31.79
33.66
34.79
35.11
34.60
33.34
31.48
29.21
26.80
24.48
22.42
20.68
19.22
17.81
16.19
14.08
11.35
8.00
4.25
0.38
-3.41
-7.06
-10.60
-14.05
-17.31
-20.23
-22.72
-24.97
-27.42
-30.60
-34.85
-40.06
-45.69
-50.97
-55.09
-57.46
-57.72
-55.67
-51.27
-44.68
-36.37
-27.09
-17.76
-9.26
-2.18
3.28
7.31
10.31
12.71
14.79
16.62
18.05
18.85
18.91
18.38
17.63
17.16
17.43
18.74
21.24
25.00
29.89
35.50
41.08
45.51
47.58
46.47
42.04
34.97
26.54
18.14
10.88
5.29
1.37
-1.26
-3.14
-4.74
-6.32
-7.89
-9.26
-10.22
-10.74
-10.94
-11.11
-11.47
-12.16
-13.22
-14.80
-17.20
-20.81
-25.89
-32.24
-39.00
-44.84
-48.45
-48.93
-46.20
-40.87
-33.99
-26.53
-19.18
-12.26
-5.84
0.14
5.63
10.46
14.39
17.22
18.89
19.51
19.31
18.66
17.86
17.15
16.71
16.65
17.15
18.37
20.40
23.17
26.32
29.29
31.52
32.64
32.68
31.98
31.00
30.07
29.16
28.01
26.29
23.90
21.07
18.20
15.60
13.22
10.63
7.23
2.68
-2.83
-8.58
-13.62
-17.22
-19.21
-20.03
-20.48
-21.41
-23.33
-26.41
-30.48
-35.20
-40.14
-44.71
-48.20
-49.78
-48.70
-44.56
-37.50
-28.22
-17.82
-7.50
1.71
9.22
14.83
18.62
20.87
21.91
22.05
21.56
20.66
19.58
18.46
17.54
16.99
17.01
17.72
19.12
21.08
23.27
25.32
26.85
27.64
27.58
26.74
25.26
23.30
21.03
18.60
16.17
13.85
11.71
9.66
7.50
4.98
1.96
-1.49
-5.09
-8.43
-11.22
-13.43
-15.38
-17.57
-20.49
-24.44
-29.40
-35.07
-40.83
-45.92
-49.47
-50.79
-49.45
-45.47
-39.27
-31.49
-22.87
-14.06
-5.64
1.91
8.13
12.73
15.68
17.22
17.83
17.99
18.02
18.03
17.99
17.97
18.06
18.45
19.24
20.35
21.58
22.73
23.69
24.47
25.12
25.58
25.65
25.06
23.64
21.42
18.68
15.78
13.00
10.43
7.92
5.27
2.27
-1.18
-5.11
-9.45
-14.07
-18.73
-23.15
-27.02
-30.18
-32.78
-35.23
-38.01
-41.45
-45.36
-49.04
-51.40
-51.36
-48.26
-42.03
-33.27
-23.05
-12.61
-3.09
4.69
10.32
13.84
15.63
16.27
16.40
16.53
16.98
17.85
19.17
20.90
23.10
25.79
28.95
32.40
35.78
38.67
40.79
42.04
42.50
42.34
41.71
40.63
38.98
36.58
33.27
29.01
23.89
18.19
12.31
6.66
1.71
-2.26
-5.18
-7.26
-8.83
-10.24
-11.75
-13.36
-14.99
-16.45
-17.63
-18.59
-19.58
-21.03
-23.35
-26.86
-31.51
-36.89
-42.21
-46.45
-48.63
-47.99
-44.27
-37.74
-29.16
-19.61
-10.18
-1.76
5.19
10.58
14.56
17.30
18.93
19.49
19.11
18.07
16.81
15.84
15.54
16.07
17.33
19.07
20.90
22.48
23.55
24.01
24.01
23.91
24.08
24.59
25.15
25.06
23.64
20.69
16.68
12.62
9.61
8.17
7.98
8.00
7.05
4.39
0.15
-4.88
-9.67
-13.50
-16.20
-18.16
-19.98
-22.15
-24.90
-28.17
-31.82
-35.67
-39.52
-43.10
-45.91
-47.31
-46.62
-43.34
-37.34
-28.95
-18.92
-8.29
1.86
10.60
17.38
22.07
24.94
26.43
26.92
26.64
25.66
24.02
21.90
19.68
17.81
16.63
16.26
16.58
17.37
18.45
19.63
20.75
21.52
21.65
20.87
19.15
16.74
14.03
11.44
9.14
7.10
5.09
2.83
0.12
-3.07
-6.66
-10.41
-14.01
-17.22
-19.94
-22.29
-24.53
-26.85
-29.25
-31.52
-33.35
-34.62
-35.47
-36.27
-37.43
-39.18
-41.38
-43.64
-45.30
-45.70
-44.24
-40.57
-34.61
-26.63
-17.17
-6.99
3.06
12.19
19.77
25.35
28.75
30.11
29.79
28.36
26.39
24.35
22.49
20.87
19.54
18.55
18.08
18.35
19.52
21.57
24.23
27.01
29.27
30.46
30.28
28.77
26.28
23.29
20.18
17.19
14.36
11.65
9.06
6.65
4.47
2.60
0.97
-0.55
-2.15
-4.01
-6.27
-8.94
-11.95
-15.07
-18.08
-20.82
-23.27
-25.59
-28.12
-31.16
-34.91
-39.26
-43.90
-48.25
-51.66
-53.49
-53.20
-50.44
-45.09
-37.36
-27.78
-17.22
-6.67
2.86
10.68
16.47
20.30
22.54
23.64
24.01
23.95
23.61
23.16
22.79
22.73
23.19
24.15
25.37
26.45
27.04
27.07
26.79
26.60
26.81
27.37
27.93
27.99
27.21
25.49
22.93
19.71
15.83
11.28
6.20
0.99
-3.76
-7.48
-9.96
-11.41
-12.31
-13.15
-14.22
-15.50
-16.82
-18.04
-19.21
-20.56
-22.37
-24.87
-28.11
-31.97
-36.16
-40.30
-43.96
-46.73
-48.21
-48.02
-45.83
-41.44
-34.90
-26.57
-17.23
-7.86
0.57
7.38
12.33
15.66
17.86
19.44
20.72
21.74
22.35
22.44
22.04
21.50
21.25
21.66
22.87
24.71
26.88
29.06
31.05
32.69
33.79
34.03
33.02
30.56
26.73
22.06
17.29
13.18
10.18
8.29
7.15
6.14
4.73
2.58
-0.28
-3.55
-6.80
-9.61
-11.79
-13.39
-14.65
-15.92
-17.55
-19.84
-23.03
-27.23
-32.33
-38.00
-43.64
-48.45
-51.55
-52.17
-49.84
-44.60
-36.98
-27.93
-18.49
-9.47
-1.26
6.13
12.82
18.84
23.89
27.53
29.39
29.50
28.32
26.54
24.89
23.82
23.49
23.81
24.56
25.57
26.71
27.87
28.93
29.74
30.15
29.96
29.04
27.32
24.85
21.77
18.30
14.67
11.12
7.79
4.82
2.24
0.04
-1.91
-3.75
-5.64
-7.69
-9.95
-12.43
-15.21
-18.43
-22.24
-26.67
-31.50
-36.30
-40.61
-44.20
-47.20
-49.89
-52.41
-54.45
-55.19
-53.63
-49.13
-41.78
-32.49
-22.62
-13.41
-5.61
0.73
5.98
10.52
14.53
17.86
20.25
21.49
21.71
21.28
20.73
20.49
20.75
21.47
22.53
23.83
25.35
27.09
28.93
30.59
31.72
32.07
31.65
30.76
29.86
29.32
29.18
29.12
28.66
27.35
25.06
22.00
18.62
15.36
12.45
9.73
6.79
3.19
-1.29
-6.46
-11.81
-16.81
-21.05
-24.52
-27.44
-30.14
-32.85
-35.67
-38.59
-41.60
-44.72
-47.83
-50.58
-52.31
-52.14
-49.38
-43.78
-35.75
-26.23
-16.41
-7.32
0.42
6.62
11.43
15.11
17.91
20.03
21.53
22.40
22.68
22.47
22.03
21.77
22.11
23.35
25.46
28.04
30.51
32.34
33.29
33.48
33.25
32.93
32.56
31.98
30.88
29.10
26.74
24.09
21.50
19.12
16.80
14.21
11.13
7.67
4.28
1.59
-0.01
-0.58
-0.69
-1.17
-2.68
-5.41
-9.01
-12.90
-16.56
-19.92
-23.33
-27.31
-32.17
-37.74
-43.43
-48.46
-52.21
-54.34
-54.75
-53.34
-49.94
-44.32
-36.46
-26.78
-16.16
-5.77
3.28
10.26
14.90
17.41
18.24
18.00
17.31
16.69
16.54
16.99
17.96
19.20
20.49
21.72
22.86
23.88
24.70
25.19
25.30
25.13
24.91
24.82
24.83
24.71
24.12
22.85
20.91
18.52
16.01
13.57
11.18
8.69
5.92
2.70
-1.04
-5.23
-9.64
-13.78
-17.05
-18.96
-19.41
-18.83
-18.03
-17.86
-18.83
-20.98
-24.06
-27.78
-32.05
-36.83
-41.89
-46.46
-49.31
-49.11
-45.01
-37.10
-26.52
-15.02
-4.40
4.14
10.28
14.47
17.50
20.04
22.35
24.34
25.75
26.40
26.34
25.74
24.90
24.08
23.60
23.79
24.97
27.23
30.33
33.66
36.47
38.19
38.72
38.47
38.05
37.94
38.15
38.26
37.61
35.81
32.92
29.54
26.53
24.60
23.98
24.31
24.71
24.13
21.50
15.80
6.14
-7.94
-26.04
-46.63
-67.03
-84.29
-96.22
-102.18
-103.16
-100.94
-97.01
-91.83
-84.91
-75.57
-63.89
-51.11
-39.27
-30.58
-26.48
-27.23
-31.88
-38.59
-45.15
-49.60
-50.77
-48.51
-43.57
-37.06
-30.01
-22.92
-15.94
-9.11
-2.54
3.54
9.05
14.19
19.37
24.95
30.94
36.96
42.36
46.50
48.84
49.03
46.88
42.49
36.34
29.23
22.23
16.15
11.38
7.70
4.51
1.12
-2.91
-7.65
-12.91
-18.42
-23.91
-29.21
-34.21
-38.87
-43.20
-47.35
-51.59
-56.25
-61.52
-67.17
-72.24
-75.09
-73.76
-66.61
-53.13
-34.25
-12.23
10.14
30.45
47.32
60.58
70.76
78.48
83.99
87.18
87.82
86.01
82.31
77.59
72.74
68.36
64.63
61.40
58.49
55.82
53.58
52.09
51.68
52.44
54.06
55.80
56.73
56.07
53.58
49.76
45.59
42.11
39.92
38.83
38.06
36.58
33.52
28.41
21.31
12.63
3.02
-6.73
-15.83
-23.57
-29.43
-33.20
-35.03
-35.31
-34.67
-33.77
-33.30
-33.79
-35.53
-38.55
-42.62
-47.39
-52.52
-57.70
-62.44
-66.04
-67.46
-65.65
-59.94
-50.45
-38.26
-25.08
-12.77
-2.72
4.55
9.40
12.81
15.86
19.20
22.81
26.01
27.86
27.76
25.80
22.82
20.10
18.69
18.92
20.36
22.11
23.38
23.87
23.81
23.69
23.84
24.20
24.41
24.06
23.00
21.29
19.22
17.02
14.72
12.27
9.72
7.31
5.50
4.47
3.73
2.10
-1.92
-9.43
-20.40
-33.35
-45.68
-54.65
-58.37
-56.67
-51.05
-44.11
-38.44
-35.65
-35.85
-37.79
-39.53
-39.29
-36.22
-30.59
-23.48
-16.06
-8.96
-2.12
4.91
12.39
19.97
26.68
31.34
33.13
32.12
29.28
26.05
23.73
22.92
23.45
24.58
25.57
26.10
26.32
26.67
27.52
28.91
30.52
31.82
32.31
31.66
29.77
26.61
22.18
16.51
9.82
2.64
-4.18
-9.69
-13.19
-14.51
-14.15
-13.01
-12.11
-12.19
-13.59
-16.29
-20.10
-24.75
-29.93
-35.28
-40.38
-44.81
-48.33
-50.92
-52.72
-53.84
-54.15
-53.28
-50.68
-45.83
-38.53
-29.03
-18.06
-6.67
3.98
12.95
19.68
24.16
26.69
27.74
27.80
27.25
26.47
25.85
25.82
26.61
28.15
29.97
31.33
31.67
30.87
29.36
27.98
27.50
28.31
30.16
32.31
33.85
34.14
33.03
30.83
28.13
25.39
22.75
20.01
16.79
12.79
8.05
2.86
-2.34
-7.28
-11.97
-16.63
-21.47
-26.54
-31.60
-36.30
-40.38
-43.80
-46.80
-49.71
-52.80
-56.15
-59.58
-62.74
-65.08
-66.03
-65.02
-61.67
-55.89
-47.95
-38.41
-27.92
-17.07
-6.29
4.04
13.46
21.44
27.46
31.22
32.81
32.71
31.61
30.16
28.83
27.88
27.49
27.79
28.86
30.61
32.71
34.63
35.85
36.12
35.60
34.80
34.27
34.29
34.60
34.49
33.13
29.99
25.22
19.59
14.17
9.88
7.04
5.27
3.80
1.88
-0.84
-4.22
-7.83
-11.24
-14.15
-16.39
-17.83
-18.36
-18.03
-17.21
-16.58
-16.96
-18.85
-22.29
-26.76
-31.52
-35.89
-39.43
-41.85
-42.81
-41.88
-38.57
-32.71
-24.65
-15.25
-5.65
3.10
10.26
15.48
18.76
20.29
20.43
19.64
18.36
17.01
15.82
14.93
14.41
14.33
14.82
16.02
17.98
20.65
23.79
27.07
30.03
32.23
33.30
33.13
31.93
30.19
28.48
27.20
26.38
25.65
24.47
22.38
19.21
15.13
10.53
5.86
1.58
-2.09
-5.11
-7.62
-9.85
-11.99
-14.24
-16.75
-19.79
-23.80
-29.20
-36.13
-44.20
-52.37
-59.12
-62.96
-62.79
-58.21
-49.56
-37.82
-24.26
-10.31
2.73
13.81
22.34
28.17
31.49
32.71
32.25
30.53
28.06
25.37
23.03
21.34
20.21
19.12
17.32
14.30
10.10
5.48
1.70
0.05
1.28
5.30
11.19
17.54
22.94
26.44
27.62
26.49
23.25
18.18
11.71
4.51
-2.44
-8.13
-11.89
-13.81
-14.71
-15.78
-17.92
-21.31
-25.37
-29.20
-32.17
-34.32
-36.33
-38.95
-42.60
-47.07
-51.79
-56.26
-60.41
-64.48
-68.60
-72.29
-74.20
-72.61
-66.23
-54.91
-39.98
-23.82
-8.90
3.11
11.83
18.05
23.01
27.61
32.01
35.71
37.99
38.46
37.39
35.63
34.26
34.18
35.75
38.66
42.02
44.67
45.66
44.55
41.64
37.81
34.15
31.53
30.23
29.93
29.99
29.73
28.74
26.90
24.30
21.04
17.30
13.34
9.55
6.36
4.06
2.59
1.55
0.38
-1.48
-4.32
-8.08
-12.36
-16.61
-20.41
-23.65
-26.56
-29.58
-33.04
-36.92
-40.88
-44.42
-47.13
-48.93
-49.90
-49.98
-48.67
-45.13
-38.53
-28.60
-15.98
-2.22
10.75
21.22
28.13
31.19
30.74
27.55
22.67
17.30
12.65
9.60
8.53
9.23
11.07
13.30
15.39
17.15
18.64
20.03
21.44
22.93
24.45
25.93
27.22
28.06
28.08
26.91
24.45
20.89
16.85
13.20
10.70
9.72
10.03
10.92
11.52
11.18
9.65
7.00
3.42
-0.95
-5.96
-11.25
-16.17
-19.88
-21.72
-21.75
-20.87
-20.57
-22.29
-26.78
-33.71
-41.80
-49.16
-53.86
-54.40
-50.07
-41.10
-28.66
-14.55
-0.75
11.11
20.11
26.09
29.53
31.07
31.23
30.13
27.64
23.51
17.82
11.12
4.45
-0.90
-3.94
-4.26
-2.34
0.74
3.77
6.00
7.24
7.84
8.22
8.54
8.60
8.05
6.72
4.82
2.68
0.57
-1.51
-3.81
-6.47
-9.24
-11.53
-12.76
-12.86
-12.31
-11.96
-12.54
-14.17
-16.53
-19.13
-21.69
-24.35
-27.39
-31.01
-35.11
-39.48
-44.01
-48.80
-53.98
-59.32
-63.88
-66.26
-65.04
-59.45
-49.72
-36.99
-22.89
-9.04
3.37
13.75
21.91
27.97
32.05
34.26
34.71
33.70
31.83
29.94
28.91
29.26
30.96
33.40
35.73
37.33
38.11
38.48
39.04
40.14
41.60
42.80
43.05
41.92
39.49
36.26
32.85
29.73
27.04
24.63
22.17
19.41
16.21
12.64
8.94
5.42
2.31
-0.34
-2.64
-4.92
-7.56
-10.88
-15.03
-19.84
-24.88
-29.56
-33.33
-35.99
-37.84
-39.56
-41.91
-45.30
-49.43
-53.31
-55.60
-55.10
-51.24
-44.24
-35.05
-25.03
-15.56
-7.71
-1.97
1.85
4.55
7.11
10.30
14.26
18.38
21.67
23.28
23.04
21.59
20.14
19.84
21.33
24.49
28.57
32.65
35.91
37.87
38.37
37.43
35.23
32.04
28.29
24.44
20.89
17.85
15.24
12.85
10.56
8.39
6.44
4.75
3.07
0.94
-2.04
-5.92
-10.24
-14.28
-17.40
-19.44
-20.79
-22.05
-23.63
-25.56
-27.56
-29.34
-30.84
-32.33
-34.23
-36.84
-40.19
-43.99
-47.62
-50.26
-51.03
-49.25
-44.69
-37.75
-29.42
-20.91
-13.31
-7.23
-2.83
-0.04
1.19
0.99
-0.25
-1.61
-1.64
1.14
7.67
17.65
29.48
40.70
48.88
52.54
51.76
48.01
43.51
40.33
39.62
41.34
44.49
47.68
49.63
49.61
47.40
43.27
37.82
31.78
25.95
21.07
17.61
15.62
14.63
13.64
11.46
7.20
0.78
-6.94
-14.37
-19.85
-22.41
-22.25
-20.57
-18.98
-18.80
-20.51
-23.84
-28.10
-32.71
-37.36
-41.85
-45.87
-48.70
-49.36
-46.93
-40.90
-31.46
-19.50
-6.42
6.32
17.50
26.44
32.98
37.32
39.96
41.40
42.09
42.36
42.37
42.13
41.50
40.18
37.86
34.21
29.03
22.32
14.40
5.99
-1.83
-7.86
-11.23
-11.67
-9.67
-6.22
-2.49
0.67
2.82
3.91
4.05
3.34
1.86
-0.26
-2.78
-5.37
-7.77
-9.92
-11.94
-14.03
-16.31
-18.72
-21.05
-23.10
-24.77
-26.10
-27.30
-28.69
-30.55
-33.10
-36.36
-40.02
-43.47
-45.81
-46.11
-43.73
-38.56
-31.11
-22.43
-13.73
-6.04
0.02
4.36
7.30
9.28
10.73
11.83
12.50
12.45
11.40
9.40
6.97
5.11
4.90
7.01
11.27
16.61
21.59
24.99
26.37
26.18
25.30
24.60
24.53
25.05
25.93
26.89
27.72
28.09
27.60
25.88
22.91
19.21
15.72
13.36
12.58
13.17
14.32
14.94
14.08
11.14
6.12
-0.41
-7.37
-13.48
-17.69
-19.68
-20.00
-19.86
-20.60
-22.99
-26.96
-31.71
-36.13
-39.33
-40.71
-39.93
-36.73
-30.99
-22.99
-13.63
-4.31
3.41
8.45
10.62
10.64
9.61
8.47
7.60
6.78
5.59
3.80
1.66
-0.17
-0.82
0.35
3.51
8.23
13.63
18.62
22.26
23.96
23.68
21.76
18.79
15.38
11.95
8.79
5.99
3.54
1.23
-1.15
-3.70
-6.26
-8.33
-9.30
-8.79
-7.03
-4.87
-3.61
-4.42
-7.88
-13.69
-20.83
-27.90
-33.64
-37.21
-38.24
-36.76
-33.04
-27.48
-20.64
-13.15
-5.71
1.13
7.00
11.78
15.53
18.29
20.01
20.62
20.07
18.51
16.27
13.89
11.90
10.75
10.70
11.79
13.76
16.16
18.48
20.32
21.63
22.57
23.40
24.12
24.29
23.24
20.49
16.17
11.12
6.57
3.51
2.18
1.98
1.85
0.80
-1.62
-5.20
-9.38
-13.59
-17.55
-21.20
-24.71
-28.22
-31.87
-35.81
-40.21
-45.01
-49.83
-53.83
-55.82
-54.73
-50.00
-41.94
-31.61
-20.50
-9.88
-0.46
7.77
15.29
22.63
29.95
36.96
43.07
47.74
50.88
52.90
54.60
56.76
59.86
63.76
67.92
71.69
74.70
77.14
79.59
82.75
86.84
91.48
95.78
98.68
99.50
98.21
95.41
92.05
88.99
86.83
85.93
86.57
89.03
93.37
98.90
103.73
104.84
98.67
82.25
54.29
15.77
-30.30
-79.88
-128.99
-174.63
-214.94
-248.79
-275.19
-293.03
-301.13
-298.79
-286.03
-263.79
-233.60
-197.29
-156.77
-114.19
-71.94
-32.48
2.07
30.77
54.30
74.83
95.31
118.15
144.22
172.47
200.40
225.17
244.63
258.21
266.95
273.02
278.88
286.29
295.61
305.54
313.36
315.71
309.60
293.26
266.60
231.15
189.33
143.69
96.25
48.12
-0.31
-49.18
-98.65
-148.41
-197.28
-243.14
-283.26
-315.08
-336.99
-348.95
-352.45
-349.90
-343.66
-335.30
-325.35
-313.64
-299.81
-283.94
-266.53
-248.31
-229.77
-210.80
-190.76
-168.92
-145.01
-119.78
-95.17
-73.81
-58.18
-49.61
-47.68
-50.36
-54.78
-58.09
-58.30
-54.47
-46.50
-34.84
-20.44
-4.86
9.64
20.40
25.10
22.65
13.75
0.86
-12.57
-23.23
-28.88
-28.99
-24.64
-18.09
-11.99
-8.53
-8.80
-12.59
-18.56
-24.97
-30.34
-33.93
-35.63
-35.66
-34.20
-31.21
-26.75
-21.15
-15.07
-9.22
-3.84
1.47
7.77
16.17
27.14
39.94
52.74
63.36
70.43
74.13
76.20
78.97
83.94
90.76
97.29
100.76
99.25
92.80
83.32
73.42
64.98
58.36
52.61
46.35
38.74
29.79
19.93
9.57
-1.09
-11.50
-20.32
-25.20
-23.51
-13.52
4.45
27.89
52.82
75.26
92.43
103.27
108.10
107.94
103.96
97.37
89.48
81.66
75.06
70.16
66.61
63.46
59.77
55.00
49.24
42.88
36.25
29.33
21.84
13.58
4.69
-4.29
-12.61
-19.56
-24.63
-27.58
-28.29
-26.74
-23.05
-17.43
-10.22
-1.80
7.43
17.02
26.34
34.46
40.26
42.76
41.47
36.76
29.88
22.66
16.97
14.02
14.03
16.10
18.51
19.30
16.94
10.82
1.56
-9.18
-19.22
-26.59
-30.15
-30.00
-27.28
-23.73
-21.09
-20.62
-22.82
-27.45
-33.50
-39.40
-43.32
-43.50
-38.75
-28.84
-14.71
1.82
18.46
33.21
44.56
51.74
54.52
52.99
47.48
38.73
27.93
16.71
6.89
-0.02
-3.18
-2.65
0.68
5.51
10.50
14.67
17.49
18.81
18.65
17.04
14.10
10.01
5.16
0.18
-4.27
-7.68
-9.86
-11.02
-11.62
-12.10
-12.67
-13.21
-13.35
-12.67
-10.91
-8.06
-4.38
-0.30
3.64
6.85
8.75
8.90
7.13
3.75
-0.52
-4.70
-7.94
-9.84
-10.56
-10.70
-11.02
-12.21
-14.73
-18.79
-24.38
-31.16
-38.39
-45.02
-49.90
-52.18
-51.73
-49.09
-45.26
-41.27
-37.72
-34.65
-31.50
-27.37
-21.40
-13.10
-2.60
9.27
21.16
31.59
39.34
43.84
45.14
43.79
40.50
35.98
30.85
25.72
21.16
17.61
15.26
14.00
13.61
13.94
15.06
17.14
20.31
24.36
28.68
32.34
34.42
34.26
31.68
27.05
21.19
15.15
9.81
5.61
2.33
-0.81
-4.82
-10.54
-18.21
-27.38
-37.08
-46.14
-53.62
-59.08
-62.59
-64.70
-66.09
-67.41
-68.99
-70.60
-71.40
-70.22
-65.96
-58.13
-47.07
-33.89
-20.09
-6.96
4.64
14.39
22.27
28.33
32.61
35.12
36.06
35.84
35.01
34.06
33.26
32.68
32.31
32.26
32.75
33.96
35.91
38.23
40.26
41.19
40.46
37.93
34.01
29.45
25.10
21.56
19.08
17.57
16.72
16.13
15.33
13.92
11.54
8.03
3.55
-1.50
-6.55
-11.08
-14.88
-18.03
-20.93
-23.99
-27.44
-31.21
-35.04
-38.63
-41.85
-44.80
-47.64
-50.35
-52.49
-53.22
-51.59
-46.89
-39.11
-28.95
-17.71
-6.84
2.49
9.61
14.44
17.26
18.44
18.34
17.37
15.97
14.79
14.57
15.80
18.46
21.94
25.19
27.18
27.42
25.97
23.34
20.03
16.38
12.77
9.85
8.53
9.59
13.11
18.08
22.72
25.25
24.82
21.89
17.90
14.36
12.06
10.79
9.66
7.83
4.98
1.42
-2.20
-5.35
-7.92
-10.16
-12.59
-15.77
-20.03
-25.41
-31.54
-37.71
-42.93
-46.15
-46.53
-43.62
-37.54
-28.94
-18.97
-8.95
-0.05
7.02
12.15
15.71
18.28
20.23
21.65
22.33
22.05
20.86
19.17
17.63
16.84
17.08
18.19
19.85
21.64
23.24
24.29
24.42
23.33
21.03
18.00
15.11
13.29
13.13
14.63
17.21
20.04
22.29
23.28
22.49
19.55
14.37
7.32
-0.71
-8.48
-14.90
-19.45
-22.36
-24.41
-26.47
-29.13
-32.54
-36.43
-40.37
-43.82
-46.19
-46.81
-45.12
-40.94
-34.67
-27.32
-20.16
-14.26
-10.06
-7.31
-5.35
-3.55
-1.68
0.07
1.37
2.07
2.39
2.80
3.74
5.37
7.48
9.66
11.56
13.12
14.55
16.19
18.23
20.48
22.32
22.99
21.86
18.75
14.09
8.75
3.77
0.02
-1.96
-2.10
-0.72
1.51
3.62
4.56
3.48
0.11
-5.05
-10.83
-15.90
-19.44
-21.42
-22.64
-24.20
-26.93
-30.98
-35.89
-40.88
-45.23
-48.45
-50.25
-50.44
-48.78
-45.16
-39.74
-32.98
-25.47
-17.70
-9.88
-1.96
6.16
14.35
22.13
28.78
33.60
36.19
36.57
35.20
32.74
29.84
27.04
24.68
22.96
22.04
21.98
22.72
24.00
25.34
26.21
26.14
24.88
22.50
19.34
15.84
12.43
9.37
6.73
4.33
1.83
-1.16
-4.86
-9.18
-13.73
-18.00
-21.66
-24.69
-27.46
-30.48
-34.17
-38.70
-43.92
-49.50
-54.98
-59.82
-63.37
-64.94
-63.90
-59.99
-53.40
-44.81
-35.08
-24.92
-14.67
-4.29
6.44
17.62
28.96
39.70
48.80
55.25
58.36
58.02
54.74
49.47
43.42
37.79
33.55
31.30
31.17
32.87
35.76
39.00
41.75
43.38
43.57
42.38
40.12
37.27
34.26
31.32
28.52
25.72
22.74
19.41
15.72
11.79
7.84
4.11
0.76
-2.18
-4.82
-7.34
-9.85
-12.43
-15.03
-17.58
-20.07
-22.63
-25.50
-28.89
-32.82
-36.95
-40.58
-42.78
-42.72
-39.94
-34.50
-26.92
-18.08
-8.90
-0.22
7.38
13.60
18.41
21.97
24.54
26.32
27.34
27.50
26.64
24.77
22.16
19.44
17.39
16.69
17.67
20.17
23.56
26.98
29.57
30.76
30.25
28.14
24.73
20.42
15.71
11.09
7.02
3.77
1.38
-0.46
-2.27
-4.57
-7.59
-11.23
-15.05
-18.55
-21.41
-23.61
-25.38
-27.13
-29.16
-31.69
-34.77
-38.40
-42.55
-47.10
-51.80
-56.18
-59.55
-61.13
-60.26
-56.60
-50.32
-42.05
-32.78
-23.52
-15.06
-7.81
-1.76
3.34
7.73
11.50
14.51
16.50
17.33
17.14
16.34
15.52
15.17
15.48
16.37
17.56
18.87
20.26
21.83
23.66
25.62
27.37
28.55
28.92
28.51
27.56
26.34
24.96
23.29
21.16
18.41
15.10
11.43
7.65
3.97
0.50
-2.68
-5.53
-8.02
-10.18
-12.12
-14.01
-16.05
-18.39
-21.17
-24.48
-28.32
-32.66
-37.26
-41.67
-45.25
-47.28
-47.19
-44.70
-39.92
-33.31
-25.57
-17.42
-9.50
-2.28
3.98
9.16
13.31
16.57
19.14
21.24
23.02
24.56
25.85
26.77
27.26
27.29
26.96
26.52
26.26
26.49
27.36
28.76
30.40
31.88
32.88
33.30
33.20
32.69
31.76
30.31
28.20
25.42
22.18
18.79
15.52
12.45
9.44
6.33
3.09
-0.06
-2.84
-5.10
-7.02
-9.07
-11.71
-15.19
-19.31
-23.62
-27.65
-31.17
-34.31
-37.32
-40.36
-43.24
-45.47
-46.39
-45.44
-42.31
-37.04
-29.90
-21.42
-12.29
-3.27
4.85
11.41
16.03
18.66
19.60
19.37
18.57
17.76
17.28
17.26
17.61
18.17
18.78
19.46
20.36
21.64
23.35
25.35
27.34
28.99
30.07
30.53
30.41
29.78
28.64
26.91
24.53
21.62
18.41
15.27
12.50
10.23
8.40
6.76
5.07
3.17
1.02
-1.26
-3.48
-5.48
-7.29
-9.16
-11.66
-15.59
-21.75
-30.58
-41.93
-54.88
-67.93
-79.23
-87.06
-90.12
-87.80
-80.21
-68.15
-53.05
-36.70
-20.99
-7.58
2.52
9.00
12.25
13.10
12.56
11.52
10.65
10.37
10.88
12.20
14.19
16.56
19.03
21.34
23.35
25.12
26.79
28.52
30.32
32.05
33.42
34.15
34.07
33.20
31.70
29.78
27.52
24.88
21.67
17.71
12.95
7.49
1.65
-4.15
-9.54
-14.22
-18.05
-21.11
-23.74
-26.54
-30.30
-35.71
-43.12
-52.29
-62.24
-71.31
-77.50
-79.04
-74.96
-65.47
-51.92
-36.45
-21.31
-8.29
1.69
8.50
12.64
14.77
15.53
15.43
14.85
14.19
13.68
13.36
13.02
12.34
11.14
9.75
8.95
9.76
12.91
18.43
25.45
32.46
37.89
40.68
40.59
38.20
34.49
30.49
26.93
24.18
22.31
21.15
20.45
19.76
18.65
16.71
13.69
9.65
4.89
-0.06
-4.65
-8.53
-11.62
-14.12
-16.44
-19.01
-22.12
-25.88
-30.17
-34.68
-38.97
-42.48
-44.59
-44.75
-42.60
-38.07
-31.46
-23.33
-14.28
-4.93
4.21
12.60
19.55
24.32
26.37
25.65
22.82
19.11
15.88
14.07
13.90
14.93
16.43
17.90
19.26
20.83
22.94
25.58
28.37
30.65
31.81
31.57
30.11
27.90
25.55
23.59
22.29
21.69
21.62
21.80
21.82
21.22
19.50
16.40
12.04
6.98
2.03
-2.17
-5.47
-8.32
-11.40
-15.21
-19.69
-24.26
-28.22
-31.26
-33.69
-36.28
-39.73
-44.13
-48.85
-52.70
-54.52
-53.55
-49.66
-43.24
-35.06
-25.91
-16.57
-7.68
0.25
6.85
11.85
15.16
16.85
17.20
16.65
15.76
15.12
15.17
16.19
18.15
20.78
23.58
26.00
27.57
28.06
27.60
26.57
25.49
24.73
24.42
24.43
24.44
24.16
23.42
22.16
20.26
17.62
14.19
10.06
5.68
1.68
-1.38
-3.31
-4.48
-5.67
-7.63
-10.72
-14.61
-18.49
-21.51
-23.26
-24.01
-24.57
-25.78
-28.03
-30.97
-33.76
-35.40
-35.10
-32.48
-27.49
-20.20
-10.78
0.45
12.87
25.53
37.39
47.62
55.91
62.44
67.79
72.58
77.32
82.33
87.81
93.93
100.84
108.57
116.91
125.57
134.25
142.75
151.18
159.90
169.33
179.83
191.41
203.56
215.29
225.25
232.14
235.09
233.84
228.58
219.53
206.45
188.52
164.56
133.63
95.48
50.75
0.69
-53.03
-108.55
-163.76
-216.26
-263.55
-303.43
-334.58
-356.83
-371.20
-379.46
-383.63
-385.55
-386.44
-386.73
-385.93
-382.67
-375.08
-361.40
-340.58
-312.71
-278.99
-241.42
-202.32
-164.05
-128.67
-97.66
-71.75
-50.82
-34.11
-20.68
-9.91
-1.77
3.39
5.39
4.78
2.98
1.81
2.67
5.78
9.89
12.71
11.85
5.93
-4.75
-17.87
-29.42
-34.50
-28.53
-8.68
24.88
68.40
115.02
156.42
185.22
197.17
192.20
174.00
148.30
120.80
95.61
74.88
59.25
48.69
43.03
41.90
44.40
48.94
53.38
55.72
54.67
50.04
42.59
33.47
23.76
14.13
4.96
-3.39
-10.32
-14.91
-16.26
-13.83
-7.87
0.56
9.89
18.51
25.37
30.13
33.10
34.89
36.07
36.94
37.52
37.75
37.62
37.29
36.91
36.55
36.14
35.59
34.88
34.21
33.94
34.36
35.50
37.04
38.43
39.07
38.61
37.01
34.56
31.65
28.65
25.77
23.10
20.60
18.21
15.90
13.66
11.58
9.68
7.85
5.79
3.13
-0.34
-4.52
-8.92
-12.88
-15.97
-18.22
-20.13
-22.36
-25.33
-29.03
-33.10
-37.05
-40.53
-43.33
-45.21
-45.85
-44.76
-41.49
-35.93
-28.39
-19.61
-10.52
-1.98
5.35
11.11
15.18
17.64
18.64
18.46
17.40
15.89
14.40
13.45
13.37
14.30
16.07
18.26
20.40
22.17
23.49
24.47
25.22
25.72
25.74
25.02
23.44
21.13
18.50
15.94
13.72
11.82
10.02
8.10
5.87
3.32
0.54
-2.39
-5.33
-8.19
-10.91
-13.52
-16.09
-18.85
-22.05
-25.92
-30.54
-35.78
-41.22
-46.22
-49.99
-51.79
-51.12
-47.82
-42.16
-34.74
-26.35
-17.72
-9.43
-1.88
4.70
10.18
14.45
17.52
19.48
20.49
20.82
20.71
20.39
20.07
19.93
20.14
20.87
22.16
23.92
25.88
27.66
28.92
29.42
29.19
28.31
26.99
25.34
23.47
21.43
19.29
17.14
15.04
12.86
10.42
7.48
3.95
-0.05
-4.17
-8.00
-11.21
-13.68
-15.53
-17.04
-18.58
-20.58
-23.44
-27.45
-32.69
-38.92
-45.47
-51.33
-55.36
-56.62
-54.54
-49.19
-41.17
-31.51
-21.31
-11.56
-2.94
4.19
9.75
13.81
16.55
18.21
19.12
19.65
20.15
20.79
21.59
22.42
23.10
23.45
23.41
23.00
22.32
21.56
20.90
20.53
20.46
20.57
20.54
20.07
19.03
17.53
15.88
14.34
12.95
11.46
9.56
7.08
4.10
0.98
-1.90
-4.30
-6.27
-8.03
-9.85
-11.92
-14.33
-17.09
-20.17
-23.57
-27.21
-31.00
-34.80
-38.47
-41.85
-44.63
-46.44
-46.75
-45.12
-41.33
-35.50
-28.09
-19.76
-11.26
-3.20
3.95
9.95
14.69
18.23
20.65
22.05
22.56
22.34
21.66
20.87
20.35
20.38
21.08
22.32
23.88
25.55
27.16
28.61
29.77
30.48
30.53
29.76
28.21
26.04
23.61
21.22
19.10
17.30
15.72
14.17
12.46
10.42
7.97
5.13
1.96
-1.39
-4.77
-8.02
-11.01
-13.66
-16.01
-18.18
-20.36
-22.85
-25.90
-29.69
-34.22
-39.16
-43.84
-47.39
-48.95
-47.92
-44.18
-38.03
-30.12
-21.16
-11.88
-2.90
5.20
11.91
16.89
20.05
21.58
21.86
21.35
20.39
19.18
17.87
16.60
15.58
15.05
15.11
15.73
16.75
17.97
19.25
20.48
21.63
22.59
23.15
23.08
22.16
20.33
17.73
14.66
11.61
8.94
6.83
5.14
3.43
1.26
-1.64
-5.24
-9.16
-12.96
-16.32
-19.21
-21.83
-24.46
-27.24
-30.12
-32.95
-35.50
-37.62
-39.08
-39.56
-38.68
-36.13
-31.85
-26.10
-19.40
-12.31
-5.28
1.39
7.48
12.71
16.74
19.31
20.37
20.20
19.33
18.33
17.60
17.25
17.15
17.14
17.13
17.17
17.37
17.80
18.37
18.91
19.18
19.00
18.24
16.86
14.88
12.45
9.76
7.09
4.70
2.73
1.16
-0.24
-1.79
-3.77
-6.38
-9.61
-13.29
-17.10
-20.64
-23.53
-25.59
-26.85
-27.70
-28.74
-30.54
-33.47
-37.45
-41.96
-46.22
-49.35
-50.53
-49.22
-45.08
-38.13
-28.76
-17.78
-6.24
4.68
13.99
21.11
25.91
28.62
29.62
29.35
28.21
26.62
24.99
23.69
22.97
22.89
23.32
24.10
25.06
26.16
27.40
28.76
30.10
31.17
31.71
31.47
30.38
28.49
25.95
22.99
19.84
16.77
13.97
11.52
9.37
7.35
5.24
2.81
-0.01
-3.13
-6.37
-9.51
-12.38
-14.94
-17.28
-19.56
-21.98
-24.69
-27.84
-31.51
-35.72
-40.30
-44.90
-48.95
-51.76
-52.64
-51.15
-47.15
-40.92
-33.04
-24.23
-15.23
-6.67
0.99
7.45
12.52
16.08
18.06
18.50
17.57
15.70
13.55
11.94
11.57
12.85
15.63
19.35
23.22
26.51
28.80
30.04
30.47
30.42
30.16
29.80
29.30
28.51
27.26
25.37
22.80
19.61
16.00
12.23
8.54
5.12
1.99
-0.90
-3.69
-6.47
-9.30
-12.14
-14.89
-17.44
-19.71
-21.74
-23.67
-25.72
-28.12
-31.08
-34.64
-38.67
-42.74
-46.17
-48.10
-47.71
-44.46
-38.28
-29.63
-19.42
-8.81
1.03
9.21
15.20
18.93
20.65
20.81
19.96
18.70
17.56
16.93
17.04
17.83
19.06
20.34
21.39
22.12
22.73
23.47
24.56
26.00
27.53
28.78
29.39
29.11
27.84
25.59
22.55
19.05
15.59
12.67
10.59
9.34
8.50
7.45
5.62
2.71
-1.22
-5.83
-10.67
-15.36
-19.68
-23.58
-27.08
-30.32
-33.51
-36.88
-40.57
-44.49
-48.18
-50.92
-51.87
-50.37
-46.09
-39.18
-30.16
-19.84
-9.13
1.03
9.76
16.39
20.53
22.21
21.80
19.97
17.47
15.06
13.32
12.69
13.27
14.87
17.05
19.27
21.16
22.57
23.65
24.60
25.54
26.34
26.64
26.10
24.55
22.16
19.29
16.33
13.54
10.97
8.47
5.87
3.05
0.01
-3.12
-6.20
-9.11
-11.87
-14.52
-17.12
-19.64
-21.97
-24.04
-25.93
-27.98
-30.65
-34.31
-38.92
-43.88
-48.07
-50.18
-49.19
-44.73
-37.18
-27.50
-16.95
-6.72
2.33
9.66
15.12
18.75
20.77
21.52
21.39
20.82
20.18
19.75
19.64
19.91
20.51
21.37
22.41
23.56
24.77
26.00
27.18
28.20
28.87
29.01
28.51
27.39
25.80
23.95
21.99
19.98
17.85
15.50
12.87
10.02
7.08
4.21
1.50
-1.00
-3.38
-5.71
-8.11
-10.64
-13.34
-16.10
-18.78
-21.26
-23.50
-25.66
-28.06
-31.05
-34.79
-39.12
-43.52
-47.13
-49.00
-48.34
-44.75
-38.35
-29.80
-20.11
-10.43
-1.71
5.48
10.97
14.96
17.74
19.63
20.81
21.42
21.53
21.23
20.65
19.93
19.30
18.98
19.25
20.26
22.01
24.22
26.42
28.09
28.85
28.59
27.45
25.75
23.78
21.78
19.79
17.78
15.64
13.30
10.72
7.90
4.87
1.70
-1.45
-4.31
-6.56
-8.00
-8.65
-8.79
-8.90
-9.48
-10.85
-13.07
-15.98
-19.30
-22.85
-26.60
-30.60
-34.86
-39.20
-43.10
-45.80
-46.50
-44.59
-39.90
-32.76
-23.97
-14.54
-5.47
2.45
8.76
13.34
16.31
17.97
18.65
18.68
18.29
17.65
16.95
16.41
16.29
16.85
18.19
20.27
22.81
25.50
28.05
30.23
31.91
32.95
33.22
32.67
31.38
29.58
27.59
25.68
23.95
22.25
20.30
17.83
14.72
11.09
7.27
3.65
0.60
-1.78
-3.59
-5.15
-6.79
-8.75
-11.07
-13.59
-16.08
-18.32
-20.28
-22.16
-24.36
-27.30
-31.22
-35.97
-40.92
-45.16
-47.73
-47.97
-45.63
-40.95
-34.45
-26.72
-18.34
-9.85
-1.82
5.15
10.62
14.40
16.63
17.73
18.08
17.93
17.35
16.31
14.93
13.53
12.58
12.50
13.46
15.34
17.78
20.31
22.54
24.21
25.20
25.47
25.09
24.14
22.75
21.04
19.14
17.14
15.14
13.17
11.19
9.13
6.88
4.39
1.73
-0.92
-3.36
-5.48
-7.31
-9.06
-10.94
-13.11
-15.54
-18.12
-20.69
-23.21
-25.78
-28.59
-31.85
-35.59
-39.68
-43.67
-46.91
-48.67
-48.28
-45.36
-39.94
-32.45
-23.63
-14.35
-5.40
2.58
9.18
14.18
17.52
19.23
19.48
18.60
17.07
15.40
14.07
13.34
13.27
13.75
14.61
15.75
17.18
18.92
20.92
22.98
24.76
25.87
26.05
25.28
23.79
21.96
20.14
18.56
17.24
16.02
14.64
12.90
10.66
7.98
5.01
1.95
-1.07
-3.96
-6.74
-9.41
-11.97
-14.38
-16.61
-18.70
-20.74
-22.85
-25.15
-27.71
-30.54
-33.68
-37.17
-41.00
-45.03
-48.82
-51.68
-52.82
-51.56
-47.57
-41.04
-32.61
-23.25
-13.97
-5.60
1.32
6.66
10.57
13.38
15.40
16.85
17.79
18.26
18.34
18.23
18.22
18.58
19.46
20.79
22.35
23.93
25.37
26.58
27.52
28.14
28.29
27.85
26.76
25.10
23.12
21.14
19.41
18.01
16.86
15.78
14.54
13.03
11.18
9.08
6.84
4.61
2.52
0.62
-1.11
-2.81
-4.70
-6.93
-9.54
-12.40
-15.29
-17.99
-20.48
-22.85
-25.39
-28.34
-31.88
-36.03
-40.67
-45.50
-49.99
-53.43
-54.93
-53.74
-49.42
-42.13
-32.59
-21.97
-11.53
-2.34
4.96
10.20
13.56
15.47
16.42
16.86
17.11
17.35
17.62
17.91
18.23
18.65
19.32
20.33
21.65
23.10
24.46
25.53
26.27
26.79
27.19
27.49
27.53
27.05
25.90
24.14
22.06
20.05
18.35
16.95
15.59
13.96
11.91
9.47
6.90
4.41
2.14
0.06
-1.94
-3.95
-5.98
-7.98
-9.90
-11.76
-13.65
-15.71
-18.06
-20.79
-23.94
-27.52
-31.52
-35.87
-40.38
-44.66
-48.08
-49.85
-49.22
-45.77
-39.55
-31.11
-21.43
-11.52
-2.29
5.68
12.09
16.85
20.00
21.69
22.22
21.98
21.44
21.01
20.91
21.18
21.74
22.50
23.49
24.76
26.36
28.17
29.95
31.35
32.10
32.09
31.39
30.22
28.76
27.19
25.54
23.86
22.09
20.15
17.91
15.24
12.10
8.59
4.95
1.54
-1.40
-3.73
-5.55
-7.10
-8.66
-10.42
-12.44
-14.65
-16.93
-19.20
-21.49
-23.95
-26.72
-29.92
-33.50
-37.17
-40.48
-42.85
-43.74
-42.72
-39.61
-34.47
-27.61
-19.56
-10.98
-2.58
4.99
11.22
15.84
18.83
20.32
20.59
19.97
18.80
17.46
16.34
15.73
15.83
16.63
17.97
19.59
21.26
22.83
24.22
25.35
26.05
26.13
25.41
23.91
21.87
19.67
17.58
15.60
13.46
10.80
7.52
3.87
0.43
-2.22
-3.84
-4.67
-5.29
-6.24
-7.76
-9.67
-11.64
-13.53
-15.57
-18.26
-22.03
-26.92
-32.47
-37.85
-42.24
-45.02
-45.94
-44.91
-41.99
-37.20
-30.70
-22.82
-14.21
-5.68
1.95
8.09
12.50
15.26
16.65
17.03
16.70
15.95
15.04
14.19
13.61
13.43
13.71
14.43
15.53
16.87
18.31
19.67
20.74
21.35
21.37
20.81
19.78
18.45
16.94
15.32
13.55
11.60
9.49
7.34
5.32
3.48
1.75
-0.13
-2.50
-5.56
-9.24
-13.21
-17.02
-20.30
-22.95
-25.18
-27.43
-30.08
-33.32
-37.07
-40.97
-44.55
-47.30
-48.78
-48.54
-46.19
-41.43
-34.24
-25.03
-14.67
-4.40
4.55
11.26
15.39
17.22
17.42
16.85
16.11
15.60
15.43
15.61
16.07
16.60
16.81
16.08
13.85
10.02
5.36
1.39
-0.07
2.23
8.30
16.78
25.45
32.20
35.74
36.04
33.98
30.71
27.09
23.41
19.60
15.53
11.25
7.05
3.29
0.11
-2.61
-5.23
-8.20
-11.75
-15.82
-20.06
-23.95
-27.15
-29.64
-31.80
-34.14
-37.05
-40.43
-43.62
-45.56
-45.22
-41.98
-35.93
-27.80
-18.66
-9.66
-1.60
5.10
10.38
14.38
17.25
19.21
20.40
21.03
21.30
21.36
21.31
21.21
21.08
21.01
21.12
21.60
22.61
24.21
26.31
28.67
30.96
32.78
33.82
33.82
32.70
30.56
27.62
24.27
20.90
17.83
15.20
12.91
10.66
8.10
4.97
1.27
-2.73
-6.59
-9.90
-12.46
-14.36
-15.88
-17.40
-19.18
-21.36
-24.00
-27.15
-30.80
-34.85
-38.96
-42.51
-44.71
-44.82
-42.44
-37.64
-30.91
-23.05
-14.86
-7.08
-0.22
5.40
9.66
12.58
14.34
15.16
15.26
14.83
14.04
13.05
12.14
11.60
11.74
12.73
14.47
16.68
18.91
20.75
21.89
22.20
21.65
20.35
18.49
16.37
14.33
12.68
11.49
10.58
9.49
7.74
5.05
1.45
-2.68
-6.82
-10.52
-13.59
-16.04
-18.12
-20.10
-22.28
-24.83
-27.89
-31.46
-35.38
-39.35
-42.88
-45.36
-46.21
-44.96
-41.39
-35.61
-28.04
-19.41
-10.62
-2.56
4.07
8.89
11.98
13.71
14.67
15.35
16.03
16.72
17.28
17.58
17.63
17.63
17.83
18.43
19.51
20.95
22.58
24.13
25.39
26.17
26.37
25.94
24.96
23.57
21.89
20.04
18.07
15.89
13.43
10.64
7.57
4.38
1.34
-1.33
-3.53
-5.37
-7.12
-9.09
-11.54
-14.54
-17.99
-21.74
-25.59
-29.44
-33.14
-36.53
-39.34
-41.33
-42.23
-41.90
-40.23
-37.07
-32.24
-25.60
-17.14
-7.18
3.49
13.64
21.80
26.67
27.56
24.71
19.33
13.24
8.16
5.20
4.43
5.16
6.36
7.25
7.59
7.67
7.91
8.53
9.41
10.17
10.43
10.04
9.10
7.77
6.11
3.98
1.30
-1.68
-4.22
-5.28
-4.02
-0.36
4.84
10.11
14.03
15.82
15.59
14.06
12.03
9.95
7.89
5.77
3.59
1.53
-0.28
-1.94
-3.93
-6.86
-11.19
-16.98
-23.74
-30.55
-36.35
-40.20
-41.43
-39.79
-35.44
-28.87
-20.75
-11.86
-2.92
5.38
12.48
17.93
21.49
23.15
23.32
22.64
21.97
21.96
22.90
24.64
26.65
28.45
29.80
30.85
31.93
33.28
34.81
36.08
36.51
35.71
33.70
30.86
27.71
24.71
22.06
19.69
17.40
15.03
12.54
9.99
7.46
5.04
2.74
0.60
-1.19
-2.35
-2.59
-1.80
-0.17
1.73
3.15
3.40
2.09
-0.74
-4.69
-9.17
-13.67
-17.87
-21.67
-25.21
-28.66
-32.17
-35.80
-39.42
-42.72
-45.20
-46.28
-45.38
-42.16
-36.58
-28.98
-19.99
-10.45
-1.23
6.89
13.35
17.90
20.62
21.93
22.43
22.70
23.08
23.57
23.94
23.91
23.44
22.74
22.21
22.18
22.75
23.77
24.98
26.15
27.09
27.70
27.79
27.14
25.58
23.20
20.32
17.47
15.09
13.34
12.07
10.95
9.71
8.24
6.61
4.87
3.05
1.01
-1.41
-4.23
-7.33
-10.45
-13.30
-15.72
-17.74
-19.58
-21.58
-24.04
-27.09
-30.71
-34.68
-38.73
-42.59
-46.02
-48.79
-50.62
-51.18
-50.09
-47.09
-42.08
-35.25
-27.03
-18.04
-9.00
-0.68
6.25
11.32
14.41
15.79
16.07
15.92
15.94
16.43
17.34
18.45
19.48
20.29
20.92
21.51
22.26
23.25
24.46
25.66
26.58
26.94
26.66
25.85
24.82
23.97
23.50
23.29
22.88
21.65
19.12
15.16
10.16
4.82
-0.04
-3.87
-6.46
-8.00
-8.90
-9.53
-10.08
-10.54
-10.78
-10.77
-10.61
-10.54
-10.81
-11.56
-12.84
-14.67
-17.16
-20.46
-24.72
-29.87
-35.56
-41.13
-45.87
-49.21
-50.86
-50.74
-48.75
-44.78
-38.73
-30.74
-21.39
-11.67
-2.84
4.09
8.74
11.49
13.25
14.97
17.10
19.45
21.33
22.11
21.60
20.21
18.71
17.86
18.02
19.12
20.65
22.10
23.11
23.66
23.96
24.25
24.65
25.06
25.23
24.80
23.60
21.71
19.45
17.32
15.67
14.56
13.64
12.24
9.74
5.91
1.06
-4.09
-8.71
-12.29
-14.75
-16.33
-17.40
-18.17
-18.70
-18.98
-19.19
-19.69
-20.90
-23.06
-26.07
-29.53
-32.90
-35.81
-38.23
-40.35
-42.44
-44.55
-46.36
-47.16
-46.14
-42.59
-36.37
-27.99
-18.56
-9.44
-1.82
3.68
7.10
8.91
9.74
10.02
9.84
9.11
7.76
5.98
4.23
3.15
3.30
5.01
8.32
12.96
18.49
24.31
29.86
34.61
38.23
40.54
41.51
41.19
39.68
37.12
33.64
29.41
24.54
19.13
13.35
7.56
2.31
-1.70
-3.96
-4.45
-3.70
-2.61
-2.05
-2.48
-3.86
-5.77
-7.79
-9.66
-11.46
-13.34
-15.50
-18.14
-21.33
-25.19
-29.74
-34.87
-40.22
-45.21
-49.10
-51.12
-50.61
-47.20
-40.82
-31.87
-21.22
-10.06
0.30
8.78
14.82
18.47
20.22
20.68
20.31
19.36
17.92
16.05
13.98
12.09
10.83
10.60
11.58
13.72
16.61
19.64
22.12
23.56
23.81
23.13
22.02
20.90
19.88
18.77
17.23
15.05
12.26
9.20
6.23
3.65
1.59
-0.01
-1.38
-2.80
-4.58
-6.94
-9.91
-13.29
-16.68
-19.63
-21.91
-23.55
-24.81
-26.05
-27.56
-29.53
-31.99
-34.86
-37.90
-40.70
-42.72
-43.33
-42.05
-38.63
-33.21
-26.17
-18.13
-9.79
-1.84
5.13
10.69
14.65
17.08
18.25
18.59
18.48
18.16
17.70
17.09
16.36
15.72
15.55
16.27
18.13
21.06
24.55
27.88
30.29
31.33
31.00
29.70
27.96
26.19
24.55
22.93
21.12
19.00
16.61
14.11
11.68
9.45
7.38
5.34
3.22
0.95
-1.43
-3.83
-6.17
-8.42
-10.65
-12.93
-15.39
-18.04
-20.85
-23.73
-26.61
-29.58
-32.81
-36.49
-40.67
-45.08
-49.11
-51.87
-52.41
-50.09
-44.72
-36.74
-27.04
-16.77
-7.02
1.43
8.14
13.09
16.44
18.43
19.34
19.43
18.94
18.22
17.58
17.30
17.52
18.24
19.32
20.65
22.16
23.84
25.69
27.57
29.18
30.15
30.16
29.13
27.24
24.92
22.63
20.67
19.11
17.83
16.62
15.28
13.74
12.00
10.07
7.98
5.75
3.39
0.95
-1.53
-4.03
-6.57
-9.19
-11.91
-14.69
-17.48
-20.24
-23.05
-26.10
-29.55
-33.44
-37.59
-41.56
-44.80
-46.76
-46.99
-45.19
-41.26
-35.24
-27.44
-18.40
-8.90
0.16
7.92
13.75
17.43
19.14
19.44
19.07
18.75
19.00
19.96
21.47
23.19
24.80
26.15
27.28
28.30
29.30
30.27
31.15
31.87
32.41
32.76
32.80
32.36
31.21
29.27
26.65
23.64
20.61
17.82
15.36
13.12
10.89
8.47
5.69
2.51
-1.01
-4.70
-8.29
-11.52
-14.19
-16.27
-17.89
-19.38
-21.12
-23.48
-26.67
-30.66
-35.05
-39.11
-41.90
-42.56
-40.56
-35.92
-29.15
-21.06
-12.54
-4.38
2.80
8.56
12.61
14.89
15.61
15.19
14.22
13.25
12.61
12.42
12.60
13.02
13.62
14.40
15.42
16.72
18.29
20.04
21.81
23.40
24.56
25.11
24.91
23.96
22.36
20.26
17.84
15.26
12.63
10.08
7.69
5.48
3.37
1.19
-1.20
-3.89
-6.82
-9.85
-12.86
-15.86
-18.95
-22.29
-25.97
-29.94
-34.07
-38.13
-41.91
-45.15
-47.49
-48.46
-47.56
-44.36
-38.74
-31.01
-21.88
-12.29
-3.18
4.73
11.00
15.56
18.51
20.15
20.77
20.71
20.24
19.62
19.02
18.53
18.21
18.11
18.31
18.94
20.11
21.85
24.07
26.52
28.79
30.38
30.74
29.43
26.27
21.50
15.86
10.43
6.24
3.88
3.28
3.77
4.42
4.51
3.83
2.62
1.26
-0.05
-1.52
-3.53
-6.36
-9.87
-13.56
-16.82
-19.35
-21.32
-23.34
-26.10
-30.00
-34.95
-40.32
-45.18
-48.42
-49.15
-46.78
-41.18
-32.83
-22.69
-12.03
-2.11
6.15
12.37
16.58
19.07
20.18
20.25
19.63
18.77
18.13
18.11
18.81
20.03
21.35
22.34
22.74
22.59
22.14
21.71
21.61
21.98
22.74
23.72
24.60
25.07
24.73
23.23
20.35
16.14
11.08
6.03
1.93
-0.58
-1.53
-1.69
-2.20
-3.96
-7.18
-11.25
-15.13
-17.88
-19.15
-19.30
-19.07
-19.23
-20.24
-22.22
-25.07
-28.59
-32.49
-36.42
-39.80
-41.84
-41.70
-38.69
-32.61
-23.83
-13.41
-2.80
6.48
13.33
17.28
18.60
18.06
16.61
15.10
14.06
13.69
13.94
14.64
15.58
16.59
17.60
18.63
19.72
20.90
22.08
23.14
23.94
24.46
24.75
24.87
24.76
24.18
22.86
20.64
17.67
14.38
11.34
8.98
7.41
6.38
5.46
4.27
2.62
0.52
-1.90
-4.52
-7.30
-10.26
-13.37
-16.52
-19.53
-22.20
-24.44
-26.25
-27.82
-29.47
-31.51
-34.15
-37.36
-40.77
-43.72
-45.39
-45.11
-42.56
-37.84
-31.42
-23.98
-16.18
-8.57
-1.60
4.42
9.18
12.54
14.51
15.33
15.46
15.39
15.55
16.09
16.93
17.88
18.76
19.59
20.58
21.98
23.93
26.35
28.87
31.00
32.26
32.46
31.67
30.21
28.48
26.71
24.92
22.94
20.63
17.98
15.23
12.70
10.62
8.99
7.55
5.92
3.81
1.16
-1.81
-4.82
-7.61
-10.12
-12.43
-14.68
-16.98
-19.37
-21.85
-24.57
-27.71
-31.46
-35.81
-40.40
-44.60
-47.69
-49.17
-48.92
-47.10
-43.90
-39.37
-33.35
-25.71
-16.63
-6.75
3.04
11.82
18.80
23.34
24.93
23.29
18.62
11.88
4.70
-1.08
-4.11
-4.05
-1.57
2.09
5.89
9.38
12.60
15.73
18.66
20.91
21.92
21.43
19.71
17.44
15.40
14.09
13.62
13.65
13.64
13.21
12.28
11.12
10.19
9.87
10.19
10.83
11.27
10.99
9.77
7.74
5.24
2.60
0.03
-2.46
-4.94
-7.55
-10.30
-13.18
-16.17
-19.29
-22.63
-26.24
-30.10
-33.92
-37.15
-38.96
-38.56
-35.44
-29.72
-22.19
-14.08
-6.59
-0.50
4.02
7.35
10.03
12.37
14.35
15.67
16.07
15.59
14.66
13.88
13.77
14.54
16.01
17.79
19.47
20.80
21.76
22.41
22.80
22.79
22.12
20.57
18.10
14.97
11.65
8.58
6.00
3.86
1.89
-0.17
-2.45
-4.91
-7.37
-9.69
-11.87
-14.00
-16.16
-18.36
-20.43
-22.15
-23.31
-23.87
-23.97
-23.88
-23.97
-24.55
-25.84
-27.91
-30.62
-33.68
-36.65
-38.97
-40.08
-39.52
-37.00
-32.49
-26.27
-18.83
-10.83
-2.95
4.23
10.27
14.92
18.17
20.16
21.10
21.24
20.83
20.12
19.40
18.97
19.11
19.95
21.42
23.24
24.97
26.27
26.94
27.05
26.83
26.48
26.12
25.71
25.07
24.09
22.78
21.25
19.62
17.96
16.18
14.10
11.50
8.33
4.68
0.84
-2.87
-6.23
-9.13
-11.63
-13.80
-15.69
-17.28
-18.56
-19.56
-20.44
-21.41
-22.64
-24.24
-26.20
-28.51
-31.24
-34.48
-38.22
-42.15
-45.52
-47.36
-46.76
-43.22
-36.87
-28.49
-19.15
-9.99
-1.86
4.76
9.74
13.23
15.56
17.11
18.23
19.18
20.01
20.64
20.98
21.05
21.02
21.16
21.74
22.88
24.53
26.52
28.62
30.61
32.29
33.52
34.19
34.26
33.78
32.89
31.72
30.35
28.75
26.76
24.20
20.98
17.17
12.94
8.61
4.41
0.55
-2.89
-5.91
-8.54
-10.83
-12.81
-14.58
-16.21
-17.82
-19.49
-21.22
-22.98
-24.70
-26.39
-28.17
-30.22
-32.80
-36.11
-40.18
-44.78
-49.34
-53.05
-55.00
-54.43
-50.91
-44.52
-35.83
-25.78
-15.48
-5.93
2.10
8.26
12.54
15.20
16.65
17.29
17.48
17.51
17.59
17.88
18.45
19.29
20.34
21.50
22.71
23.91
25.07
26.13
27.02
27.66
28.00
28.07
27.94
27.69
27.39
27.09
26.75
26.35
25.78
24.83
23.23
20.70
17.11
12.66
7.88
3.51
0.20
-1.76
-2.60
-2.98
-3.69
-5.34
-8.04
-11.39
-14.64
-17.01
-18.02
-17.70
-16.62
-15.68
-15.78
-17.47
-20.80
-25.33
-30.28
-34.87
-38.42
-40.40
-40.40
-38.11
-33.35
-26.32
-17.65
-8.39
0.26
7.30
12.26
15.25
16.81
17.63
18.13
18.37
18.19
17.38
15.97
14.25
12.69
11.73
11.62
12.34
13.72
15.51
17.49
19.47
21.21
22.48
23.10
23.01
22.33
21.34
20.38
19.61
19.00
18.32
17.29
15.68
13.51
10.94
8.26
5.67
3.19
0.71
-1.94
-4.90
-8.20
-11.75
-15.43
-19.07
-22.51
-25.57
-28.17
-30.35
-32.30
-34.37
-36.96
-40.29
-44.23
-48.25
-51.58
-53.36
-52.97
-50.18
-45.10
-38.12
-29.83
-20.86
-11.97
-3.87
2.80
7.74
11.03
13.13
14.60
15.88
17.11
18.22
19.05
19.64
20.23
21.08
22.36
23.98
25.71
27.29
28.64
29.78
30.74
31.41
31.57
30.97
29.52
27.42
25.01
22.69
20.66
18.90
17.19
15.30
13.04
10.39
7.41
4.32
1.38
-1.15
-3.08
-4.43
-5.44
-6.51
-8.02
-10.19
-12.94
-16.02
-19.17
-22.26
-25.40
-28.83
-32.72
-36.95
-41.04
-44.22
-45.69
-44.78
-41.24
-35.27
-27.42
-18.49
-9.33
-0.66
7.03
13.52
18.77
22.91
26.08
28.38
29.90
30.72
31.00
30.99
30.96
31.21
31.99
33.51
35.95
39.42
43.68
47.98
51.10
51.75
49.10
43.25
35.19
26.36
17.96
10.61
4.25
-1.36
-6.34
-10.45
-13.39
-15.11
-16.01
-16.76
-17.91
-19.61
-21.56
-23.32
-24.62
-25.49
-26.21
-27.09
-28.28
-29.79
-31.50
-33.30
-35.15
-37.14
-39.48
-42.40
-46.09
-50.47
-55.14
-59.34
-62.04
-62.26
-59.28
-52.79
-42.98
-30.46
-16.15
-1.23
13.04
25.41
34.81
40.59
42.67
41.64
38.69
35.45
33.60
34.52
38.89
46.50
56.26
66.52
75.62
82.32
86.25
87.87
88.34
89.15
91.67
96.70
104.22
113.17
121.79
128.23
131.46
131.96
131.76
133.51
138.98
147.76
156.93
162.00
158.65
144.30
119.04
85.30
46.57
6.13
-33.61
-71.04
-104.95
-134.36
-158.74
-178.36
-194.25
-207.52
-218.37
-225.46
-226.28
-218.50
-201.56
-177.66
-151.31
-127.57
-109.97
-98.99
-92.29
-86.27
-78.10
-67.04
-54.45
-42.78
-34.16
-29.44
-27.99
-28.29
-28.79
-28.45
-26.87
-24.17
-20.64
-16.52
-11.96
-7.15
-2.41
1.84
5.26
7.84
9.98
12.33
15.54
19.82
24.77
29.49
32.97
34.45
33.67
30.81
26.25
20.37
13.45
5.84
-2.12
-9.88
-16.86
-22.48
-26.34
-28.27
-28.53
-27.84
-27.23
-27.78
-30.23
-34.70
-40.69
-47.29
-53.55
-58.69
-62.15
-63.34
-61.61
-56.35
-47.37
-35.31
-21.74
-8.87
1.27
7.49
9.80
9.19
6.95
3.98
0.61
-3.02
-6.52
-8.89
-8.90
-5.62
1.02
10.20
20.73
31.57
42.18
52.21
61.06
67.52
69.96
67.13
58.84
46.40
32.25
19.11
8.97
2.50
-1.02
-3.25
-6.03
-10.88
-18.33
-27.78
-37.58
-45.39
-48.83
-46.29
-37.49
-23.66
-7.19
9.08
22.66
32.05
36.91
37.94
36.45
34.08
32.37
32.58
35.43
40.91
48.34
56.53
64.12
69.78
72.39
71.18
65.84
56.78
45.19
32.86
21.65
12.88
6.89
3.11
0.54
-1.58
-3.43
-4.67
-4.87
-3.96
-2.24
-0.12
2.27
5.15
8.85
13.45
18.55
23.26
26.64
28.07
27.46
25.22
22.04
18.56
15.23
12.21
9.48
7.09
5.26
4.46
5.19
7.78
12.03
17.27
22.62
27.27
30.56
32.06
31.53
29.03
25.06
20.52
16.41
13.36
11.30
9.55
7.33
4.41
1.42
-0.44
-0.26
1.93
5.13
7.90
9.37
9.61
9.41
9.27
8.58
5.53
-2.44
-17.39
-40.01
-69.05
-101.55
-133.41
-159.97
-176.55
-179.17
-165.44
-135.64
-93.38
-45.18
1.11
38.52
63.05
74.49
75.78
71.37
65.45
60.83
58.78
59.49
62.72
68.08
75.12
83.15
91.20
98.18
103.18
105.78
106.15
104.81
102.27
98.70
93.82
87.13
78.33
67.62
55.72
43.59
31.98
21.15
10.98
1.16
-8.46
-17.75
-26.42
-34.21
-41.04
-46.90
-51.83
-55.79
-58.62
-60.20
-60.48
-59.51
-57.44
-54.44
-50.68
-46.42
-42.00
-37.79
-34.07
-30.82
-27.70
-24.02
-19.06
-12.32
-3.78
6.09
16.51
26.66
36.01
44.37
