1480254139.00
64.000000
-0.00
-0.00
-0.00
-0.00
-0.00
-0.00
-0.00
-0.00
-0.00
-0.00
0.00
0.01
0.01
-0.00
-0.03
-0.05
-0.05
0.00
0.13
0.36
0.66
1.01
1.37
1.72
2.06
2.40
2.79
3.24
3.80
4.42
5.06
5.66
6.20
6.68
7.15
7.68
8.31
9.14
10.09
11.04
11.88
12.56
13.14
13.76
14.65
15.96
17.91
20.32
22.90
25.38
27.58
29.57
31.68
34.32
37.81
42.54
48.15
54.10
59.83
64.97
69.58
74.14
79.34
85.71
93.76
103.00
112.62
121.73
129.77
136.75
143.30
150.75
157.77
166.64
177.95
191.79
206.97
220.57
228.25
225.36
208.53
176.87
132.76
80.05
23.07
-34.94
-92.44
-149.16
-205.23
-260.37
-313.74
-363.87
-409.83
-450.91
-486.50
-515.74
-537.23
-549.22
-549.96
-538.37
-514.21
-478.67
-433.88
-382.45
-327.02
-269.84
-212.63
-156.66
-102.95
-52.37
-5.90
35.58
71.43
101.35
125.50
144.38
158.69
169.15
176.37
180.75
182.57
182.07
179.51
175.23
169.65
163.18
156.15
148.81
141.30
133.69
126.02
118.33
110.69
103.16
95.80
88.68
81.83
75.25
68.95
62.95
57.25
51.86
46.78
42.03
37.59
33.45
29.61
26.07
22.81
19.83
17.11
14.67
12.48
10.54
8.83
7.35
6.07
4.97
4.05
3.27
2.62
2.09
1.65
1.30
1.01
0.79
0.61
0.48
0.37
0.29
0.22
0.18
0.14
0.11
0.09
0.08
0.07
0.06
0.05
0.05
0.04
0.04
0.04
0.03
0.03
0.03
0.03
0.03
0.03
0.03
0.02
0.02
0.02
0.02
0.02
0.02
0.02
0.02
0.02
0.02
0.02
0.02
0.02
0.02
0.02
0.01
0.01
0.01
0.01
0.01
0.01
0.01
0.01
0.01
0.01
0.01
0.01
0.01
0.01
0.01
0.02
0.03
0.04
0.05
0.08
0.10
0.13
0.15
0.19
0.23
0.27
0.31
0.35
0.40
0.43
0.48
0.53
0.58
0.63
0.68
0.74
0.81
0.88
0.96
1.05
1.15
1.26
1.38
1.52
1.69
1.88
2.09
2.28
2.48
2.66
2.84
3.05
3.30
3.63
4.04
4.48
4.96
5.43
5.90
6.37
6.88
7.46
8.13
8.89
9.69
10.49
11.23
11.92
12.58
13.31
14.18
15.27
16.52
17.80
18.87
19.51
19.52
18.90
17.72
16.16
14.30
12.14
9.48
6.03
1.65
-3.64
-9.44
-15.19
-20.22
-24.07
-26.64
-28.24
-29.49
-30.97
-33.00
-35.46
-37.80
-39.41
-39.81
-38.99
-37.42
-35.88
-35.18
-35.95
-38.50
-42.68
-47.59
-51.53
-52.36
-48.13
-38.12
-23.41
-6.67
8.75
20.18
26.71
29.26
29.73
29.89
30.35
30.50
29.48
26.78
22.99
19.61
18.20
19.72
24.21
30.94
38.50
45.42
49.70
49.31
42.99
31.12
16.54
4.24
-0.47
5.64
22.45
45.87
69.75
88.41
98.07
98.16
90.90
79.48
63.72
44.25
21.32
-4.70
-32.87
-62.87
-93.48
-121.64
-143.15
-154.32
-152.34
-136.22
-106.88
-67.19
-23.79
16.32
48.90
72.99
89.50
100.35
107.30
110.92
110.35
100.92
78.34
42.10
-4.71
-57.89
-112.95
-165.24
-210.10
-226.26
-201.24
-144.26
-77.61
-18.70
24.89
52.31
65.93
68.95
64.49
52.16
32.41
9.21
-11.41
-25.04
-30.86
-27.99
-19.33
-9.05
-2.72
-3.36
-9.29
-15.61
-17.77
-13.72
-3.91
8.99
22.08
32.02
37.09
38.09
37.33
36.70
37.07
38.57
40.72
43.11
44.80
45.01
43.63
41.11
37.90
34.36
30.91
27.71
25.07
22.97
21.39
20.36
19.93
19.99
20.22
20.29
19.72
18.18
15.50
11.77
7.39
3.00
-0.77
-3.48
-5.16
-6.26
-7.39
-8.97
-10.98
-13.11
-14.82
-15.79
-15.99
-15.67
-15.16
-14.76
-14.62
-14.79
-15.35
-16.33
-17.79
-19.73
-22.07
-24.67
-27.34
-29.81
-31.74
-32.80
-32.80
-31.73
-29.78
-27.26
-24.43
-21.40
-18.09
-14.38
-10.19
-5.61
-0.93
3.44
6.98
9.30
10.12
9.47
7.69
5.31
2.94
1.12
0.10
-0.18
0.09
0.60
1.08
1.39
1.39
1.03
0.26
-0.94
-2.55
-4.45
-6.51
-8.51
-10.29
-11.74
-12.86
-13.77
-14.62
-15.45
-16.21
-16.67
-16.59
-15.84
-14.45
-12.65
-10.77
-9.08
-7.80
-7.01
-6.77
-7.03
-7.68
-8.56
-9.43
-10.16
-10.76
-11.35
-12.15
-13.30
-14.81
-16.58
-18.44
-20.19
-21.64
-22.52
-22.44
-20.97
-17.75
-12.67
-5.97
1.72
9.53
16.51
21.90
25.31
26.81
26.83
26.02
24.93
23.89
22.91
21.88
20.67
19.33
18.00
16.85
15.94
15.19
14.46
13.68
12.97
12.59
12.72
13.26
13.73
13.51
12.12
9.55
6.33
3.31
1.30
0.65
1.17
2.27
3.25
3.67
3.44
2.74
1.86
0.97
0.09
-0.83
-1.85
-2.96
-4.05
-5.01
-5.80
-6.55
-7.49
-8.89
-10.90
-13.47
-16.35
-19.19
-21.70
-23.75
-25.43
-26.91
-28.29
-29.46
-30.06
-29.66
-27.96
-24.95
-20.92
-16.35
-11.75
-7.52
-3.82
-0.68
1.98
4.20
5.94
7.11
7.68
7.72
7.43
7.07
6.84
6.86
7.05
7.28
7.39
7.37
7.25
7.15
7.11
7.07
6.93
6.65
6.34
6.23
6.55
7.44
8.83
10.43
11.90
12.98
13.63
14.01
14.35
14.80
15.29
15.59
15.34
14.29
12.47
10.13
7.70
5.58
3.97
2.80
1.85
0.85
-0.36
-1.76
-3.29
-4.84
-6.36
-7.88
-9.42
-10.92
-12.27
-13.37
-14.16
-14.64
-14.73
-14.23
-12.83
-10.31
-6.66
-2.23
2.45
6.84
10.65
13.79
16.29
18.15
19.33
19.79
19.64
19.17
18.72
18.58
18.87
19.51
20.29
21.03
21.56
21.83
21.86
21.73
21.53
21.32
21.03
20.49
19.47
17.81
15.51
12.78
9.89
7.09
4.55
2.34
0.51
-0.98
-2.23
-3.44
-4.93
-6.96
-9.69
-13.00
-16.56
-19.95
-22.79
-24.89
-26.32
-27.38
-28.50
-30.07
-32.35
-35.40
-38.99
-42.69
-45.90
-47.98
-48.36
-46.75
-43.19
-38.12
-32.18
-26.05
-20.16
-14.58
-9.09
-3.38
2.61
8.61
14.03
18.21
20.76
21.70
21.44
20.57
19.65
19.00
18.69
18.67
18.87
19.27
19.89
20.68
21.46
21.95
21.82
20.94
19.49
17.83
16.43
15.56
15.20
15.06
14.77
14.06
12.88
11.40
9.84
8.44
7.34
6.62
6.26
6.10
5.85
5.11
3.54
1.04
-2.16
-5.58
-8.75
-11.42
-13.61
-15.52
-17.37
-19.29
-21.29
-23.35
-25.40
-27.35
-28.98
-30.01
-30.11
-29.04
-26.81
-23.54
-19.43
-14.61
-9.09
-2.92
3.70
10.24
15.99
20.24
22.61
23.17
22.47
21.27
20.28
19.84
19.94
20.33
20.77
21.15
21.51
21.95
22.45
22.93
23.27
23.41
23.37
23.11
22.57
21.54
19.93
17.80
15.45
13.32
11.70
10.57
9.61
8.31
6.25
3.29
-0.40
-4.45
-8.42
-11.90
-14.67
-16.64
-17.84
-18.52
-18.98
-19.60
-20.69
-22.43
-24.80
-27.61
-30.51
-33.06
-34.77
-35.24
-34.22
-31.74
-28.01
-23.31
-17.93
-12.06
-5.94
0.11
5.62
10.09
13.22
15.04
15.95
16.48
17.08
17.89
18.76
19.43
19.72
19.61
19.28
18.98
18.98
19.41
20.26
21.34
22.40
23.14
23.32
22.83
21.68
19.91
17.64
15.00
12.15
9.24
6.39
3.65
0.93
-1.85
-4.71
-7.53
-10.11
-12.35
-14.34
-16.40
-18.92
-22.17
-26.03
-30.06
-33.62
-36.16
-37.33
-37.07
-35.43
-32.49
-28.23
-22.66
-15.89
-8.36
-0.76
6.08
11.48
15.12
17.16
18.10
18.57
19.03
19.69
20.49
21.23
21.77
22.06
22.16
22.16
22.09
21.94
21.63
21.07
20.25
19.19
17.98
16.71
15.43
14.10
12.62
10.86
8.76
6.29
3.55
0.65
-2.32
-5.21
-7.96
-10.49
-12.77
-14.82
-16.67
-18.43
-20.23
-22.20
-24.50
-27.23
-30.44
-33.99
-37.55
-40.63
-42.67
-43.17
-41.85
-38.68
-33.86
-27.78
-20.93
-13.82
-6.96
-0.81
4.35
8.41
11.50
13.85
15.78
17.51
19.18
20.79
22.28
23.60
24.67
25.46
25.95
26.20
26.27
26.33
26.55
27.02
27.69
28.38
28.77
28.56
27.52
25.62
23.05
20.16
17.38
15.08
13.40
12.19
11.12
9.83
8.14
6.14
4.08
2.20
0.56
-1.00
-2.72
-4.77
-7.18
-9.78
-12.41
-14.93
-17.37
-19.79
-22.33
-25.02
-27.89
-30.86
-33.73
-36.19
-37.83
-38.21
-37.07
-34.39
-30.41
-25.49
-20.02
-14.25
-8.35
-2.56
2.84
7.42
10.82
12.89
13.78
13.85
13.53
13.11
12.70
12.29
11.89
11.61
11.59
11.86
12.29
12.59
12.45
11.68
10.31
8.51
6.51
4.41
2.20
-0.21
-2.90
-5.85
-8.95
-12.05
-15.08
-18.03
-20.93
-23.80
-26.55
-29.03
-31.11
-32.80
-34.38
-36.28
-38.93
-42.40
-46.27
-49.60
-51.21
-50.15
-46.04
-39.24
-30.74
-21.80
-13.65
-7.21
-2.99
-1.12
-1.42
-3.44
-6.47
-9.64
-12.12
-13.34
-13.23
-12.12
-10.55
-8.81
-6.76
-3.78
0.80
7.28
15.27
23.68
31.14
36.57
39.50
40.20
39.33
37.59
35.41
32.93
30.15
27.14
24.03
21.01
18.20
15.67
13.56
12.23
12.22
14.11
18.24
24.47
32.15
40.32
48.09
54.89
60.56
65.21
68.86
71.38
72.53
72.21
70.67
68.54
66.56
65.23
64.51
63.81
62.24
59.00
53.72
46.56
38.03
28.74
19.05
9.02
-1.47
-12.49
-23.82
-34.87
-44.83
-52.83
-58.25
-60.83
-60.70
-58.31
-54.29
-49.36
-44.20
-39.34
-35.07
-31.39
-28.15
-25.16
-22.35
-19.78
-17.46
-15.33
-13.12
-10.48
-7.19
-3.30
0.88
4.94
8.57
11.74
14.63
17.51
20.48
23.42
25.93
27.56
27.94
26.94
24.66
21.30
17.08
12.15
6.63
0.70
-5.35
-11.13
-16.25
-20.40
-23.48
-25.62
-27.14
-28.40
-29.71
-31.17
-32.71
-34.12
-35.20
-35.92
-36.40
-36.93
-37.78
-39.09
-40.80
-42.70
-44.56
-46.12
-47.20
-47.60
-47.11
-45.46
-42.47
-38.08
-32.42
-25.81
-18.70
-11.47
-4.45
2.21
8.40
13.94
18.63
22.24
24.71
26.24
27.25
28.22
29.46
30.99
32.54
33.68
34.12
33.80
32.96
31.89
30.82
29.78
28.69
27.43
26.00
24.48
22.98
21.52
20.02
18.37
16.48
14.39
12.20
10.06
8.03
6.15
4.42
2.82
1.33
-0.10
-1.54
-3.11
-4.83
-6.68
-8.59
-10.50
-12.43
-14.39
-16.40
-18.39
-20.22
-21.76
-23.02
-24.16
-25.47
-27.28
-29.74
-32.74
-35.85
-38.39
-39.69
-39.25
-36.92
-32.92
-27.74
-21.91
-15.89
-9.98
-4.38
0.72
5.15
8.68
11.20
12.72
13.40
13.55
13.51
13.60
13.98
14.66
15.48
16.20
16.61
16.63
16.36
16.06
15.97
16.21
16.69
17.16
17.33
17.03
16.30
15.28
14.17
13.08
12.04
11.03
10.05
9.11
8.23
7.40
6.49
5.38
3.96
2.22
0.31
-1.56
-3.21
-4.53
-5.55
-6.44
-7.42
-8.69
-10.34
-12.32
-14.49
-16.69
-18.82
-20.88
-22.88
-24.82
-26.51
-27.68
-27.93
-26.96
-24.64
-21.01
-16.34
-10.99
-5.34
0.19
5.17
9.19
11.98
13.46
13.80
13.41
12.72
12.08
11.64
11.44
11.44
11.62
12.00
12.57
13.23
13.82
14.17
14.22
13.95
13.42
12.63
11.59
10.28
8.79
7.24
5.77
4.40
3.02
1.51
-0.21
-2.09
-3.93
-5.59
-7.00
-8.22
-9.33
-10.38
-11.41
-12.43
-13.53
-14.89
-16.68
-18.93
-21.56
-24.40
-27.25
-29.96
-32.40
-34.32
-35.40
-35.26
-33.69
-30.71
-26.61
-21.81
-16.68
-11.43
-6.09
-0.64
4.83
10.08
14.71
18.35
20.74
21.86
21.93
21.37
20.66
20.14
20.01
20.18
20.43
20.54
20.38
19.98
19.44
18.86
18.20
17.37
16.28
14.89
13.26
11.56
9.87
8.26
6.65
5.00
3.32
1.69
0.20
-1.15
-2.45
-3.84
-5.49
-7.42
-9.55
-11.72
-13.81
-15.78
-17.69
-19.69
-21.89
-24.36
-27.06
-29.86
-32.53
-34.75
-36.19
-36.50
-35.47
-33.01
-29.18
-24.12
-18.08
-11.38
-4.41
2.28
8.20
12.96
16.40
18.66
20.03
20.83
21.29
21.55
21.64
21.64
21.58
21.47
21.27
20.92
20.41
19.85
19.42
19.27
19.34
19.40
19.10
18.24
16.83
15.15
13.56
12.30
11.39
10.60
9.69
8.50
7.10
5.67
4.44
3.49
2.77
2.06
1.11
-0.23
-1.95
-3.87
-5.73
-7.34
-8.65
-9.83
-11.11
-12.72
-14.77
-17.21
-19.92
-22.75
-25.63
-28.45
-31.06
-33.18
-34.44
-34.38
-32.70
-29.28
-24.32
-18.25
-11.64
-5.04
1.04
6.27
10.41
13.35
15.10
15.82
15.78
15.38
14.99
14.85
15.03
15.43
15.86
16.17
16.30
16.29
16.19
15.97
15.57
14.91
13.97
12.84
11.68
10.64
9.77
8.97
8.05
6.88
5.43
3.81
2.23
0.84
-0.31
-1.32
-2.36
-3.50
-4.73
-5.91
-6.96
-7.92
-8.94
-10.26
-12.00
-14.16
-16.57
-18.93
-20.93
-22.21
-22.40
-21.19
-18.36
-13.94
-8.24
-1.84
4.59
10.43
15.22
18.70
20.84
21.73
21.59
20.74
19.52
18.23
17.05
16.07
15.29
14.75
14.52
14.68
15.23
16.03
16.78
17.10
16.72
15.53
13.71
11.57
9.43
7.47
5.73
4.10
2.51
0.94
-0.60
-2.15
-3.86
-5.94
-8.47
-11.37
-14.33
-17.07
-19.46
-21.64
-23.96
-26.75
-30.08
-33.65
-36.90
-39.16
-39.90
-38.89
-36.22
-32.22
-27.35
-21.97
-16.40
-10.83
-5.41
-0.35
4.12
7.74
10.30
11.82
12.52
12.78
12.96
13.34
13.96
14.76
15.59
16.32
16.86
17.12
17.07
16.77
16.31
15.91
15.72
15.83
16.19
16.73
17.51
18.76
20.78
23.87
28.04
33.04
38.53
44.28
50.31
56.72
63.54
70.47
76.96
82.40
86.47
89.39
91.89
94.85
98.99
104.51
111.00
117.65
123.48
127.59
129.38
128.51
124.96
119.01
111.20
102.24
92.81
83.31
73.56
62.81
49.89
33.64
13.59
-9.69
-34.50
-58.46
-79.31
-95.59
-107.04
-114.45
-119.08
-122.05
-123.97
-124.95
-124.86
-123.70
-121.62
-118.86
-115.50
-111.40
-106.26
-99.90
-92.47
-84.54
-77.00
-70.72
-66.28
-63.81
-62.91
-62.93
-63.19
-63.22
-62.84
-62.11
-61.19
-60.20
-59.27
-58.52
-58.19
-58.55
-59.71
-61.40
-62.92
-63.35
-61.88
-58.24
-52.91
-46.88
-41.34
-37.13
-34.47
-32.99
-32.02
-30.87
-29.11
-26.55
-23.13
-18.80
-13.55
-7.49
-0.96
5.39
10.79
14.61
16.56
16.77
15.78
14.21
12.60
11.22
10.10
9.09
8.07
6.96
5.70
4.24
2.46
0.27
-2.34
-5.20
-8.03
-10.46
-12.25
-13.27
-13.56
-13.19
-12.14
-10.23
-7.14
-2.57
3.54
10.86
18.71
26.20
32.55
37.28
40.26
41.67
41.79
40.88
39.11
36.58
33.40
29.66
25.52
21.08
16.34
11.30
5.92
0.23
-5.60
-11.25
-16.25
-20.05
-22.15
-22.18
-20.05
-15.89
-10.05
-3.05
4.52
12.05
18.96
24.79
29.24
32.25
33.96
34.70
34.84
34.70
34.54
34.46
34.45
34.36
34.01
33.19
31.87
30.16
28.33
26.67
25.32
24.17
22.89
21.08
18.52
15.28
11.71
8.24
5.17
2.55
0.20
-2.13
-4.55
-7.00
-9.28
-11.18
-12.62
-13.68
-14.51
-15.33
-16.28
-17.39
-18.61
-19.80
-20.81
-21.51
-21.91
-22.20
-22.73
-23.90
-25.94
-28.79
-32.10
-35.30
-37.85
-39.35
-39.68
-38.82
-36.84
-33.76
-29.62
-24.49
-18.49
-11.88
-4.93
2.06
8.79
15.02
20.50
25.03
28.46
30.78
32.11
32.72
32.96
33.13
33.41
33.81
34.20
34.49
34.64
34.76
34.94
35.14
35.05
34.18
32.06
28.51
23.84
18.69
13.83
9.88
7.14
5.69
5.50
6.56
8.81
12.05
15.83
19.48
22.36
24.06
24.50
23.84
22.22
19.66
16.07
11.50
6.33
1.33
-2.50
-4.39
-4.14
-2.23
0.31
2.37
3.12
2.36
0.44
-1.81
-3.44
-3.51
-1.39
3.16
9.80
17.57
25.09
30.74
33.20
31.85
27.01
19.93
12.49
6.55
3.51
3.89
7.23
12.39
17.89
22.38
24.94
25.16
23.11
19.16
13.92
8.10
2.48
-2.17
-5.22
-6.36
-5.59
-3.25
0.08
3.72
6.92
9.04
9.59
8.29
5.19
0.56
-5.17
-11.51
-18.05
-24.50
-30.67
-36.35
-41.34
-45.33
-48.11
-49.59
-50.00
-49.82
-49.70
-50.19
-51.55
-53.75
-56.41
-59.02
-61.02
-61.90
-61.24
-58.69
-54.06
-47.43
-39.20
-30.07
-20.89
-12.47
-5.32
0.36
4.69
7.94
10.40
12.25
13.60
14.48
15.00
15.25
15.35
15.35
15.23
14.92
14.35
13.51
12.42
11.14
9.69
8.09
6.40
4.69
3.10
1.71
0.53
-0.47
-1.31
-1.96
-2.43
-2.75
-3.10
-3.71
-4.80
-6.39
-8.39
-10.61
-12.94
-15.33
-17.74
-20.06
-22.06
-23.50
-24.26
-24.50
-24.60
-25.08
-26.30
-28.36
-30.94
-33.44
-35.07
-35.11
-33.05
-28.72
-22.33
-14.42
-5.75
2.93
10.97
17.95
23.62
27.81
30.45
31.51
31.16
29.73
27.70
25.58
23.72
22.27
21.19
20.31
19.54
18.88
18.46
18.37
18.65
19.12
19.54
19.60
19.10
17.99
16.40
14.52
12.59
10.78
9.18
7.76
6.47
5.19
3.84
2.37
0.84
-0.65
-1.97
-3.07
-4.00
-4.87
-5.85
-7.00
-8.31
-9.69
-10.99
-12.16
-13.20
-14.21
-15.28
-16.56
-18.10
-19.97
-22.10
-24.30
-26.31
-27.81
-28.53
-28.26
-26.82
-24.08
-19.97
-14.54
-8.03
-0.97
6.02
12.26
17.30
20.91
23.12
24.10
24.03
23.14
21.71
20.12
18.79
18.03
17.97
18.47
19.23
19.96
20.52
20.93
21.28
21.62
21.83
21.72
21.08
19.84
18.10
16.11
14.10
12.23
10.58
9.14
7.90
6.84
5.90
4.94
3.78
2.21
0.11
-2.47
-5.30
-8.08
-10.51
-12.49
-14.09
-15.60
-17.35
-19.63
-22.58
-26.12
-29.95
-33.57
-36.40
-37.84
-37.50
-35.16
-30.92
-25.07
-18.11
-10.56
-3.00
4.05
10.11
14.85
18.10
19.85
20.29
19.73
18.62
17.44
16.74
16.97
18.37
20.87
24.05
27.30
29.99
31.70
32.28
31.82
30.53
28.59
26.18
23.46
20.65
17.96
15.58
13.54
11.69
9.83
7.79
5.49
3.00
0.46
-2.04
-4.44
-6.77
-9.08
-11.36
-13.58
-15.68
-17.62
-19.37
-20.98
-22.50
-24.00
-25.59
-27.35
-29.38
-31.72
-34.26
-36.69
-38.50
-39.09
-37.94
-34.78
-29.69
-23.08
-15.54
-7.70
-0.12
6.77
12.61
17.16
20.27
21.93
22.27
21.60
20.31
18.85
17.61
16.88
16.80
17.30
18.20
19.22
20.10
20.64
20.76
20.45
19.77
18.79
17.61
16.33
15.06
13.93
13.02
12.38
11.99
11.75
11.57
11.35
11.03
10.57
9.96
9.22
8.36
7.41
6.42
5.39
4.33
3.19
1.86
0.22
-1.83
-4.34
-7.25
-10.50
-14.04
-17.87
-22.00
-26.42
-30.99
-35.40
-39.24
-42.03
-43.32
-42.79
-40.31
-35.92
-29.88
-22.59
-14.57
-6.39
1.41
8.34
14.05
18.34
21.15
22.55
22.75
22.05
20.80
19.42
18.27
17.67
17.74
18.44
19.64
21.11
22.63
24.03
25.19
25.98
26.24
25.82
24.65
22.76
20.33
17.64
14.98
12.55
10.44
8.66
7.14
5.82
4.58
3.33
1.97
0.39
-1.40
-3.30
-5.14
-6.76
-8.09
-9.22
-10.38
-11.76
-13.50
-15.59
-17.90
-20.34
-22.89
-25.62
-28.64
-31.91
-35.22
-38.14
-40.14
-40.75
-39.68
-36.91
-32.67
-27.36
-21.42
-15.30
-9.39
-4.04
0.47
3.91
6.17
7.26
7.36
6.76
5.93
5.41
5.70
7.19
9.96
13.83
18.39
23.18
27.82
32.10
35.96
39.38
42.32
44.63
46.12
46.62
46.09
44.61
42.39
39.67
36.67
33.51
30.20
26.68
22.86
18.75
14.39
9.99
5.69
1.61
-2.29
-6.15
-10.10
-14.20
-18.36
-22.36
-25.98
-28.96
-31.11
-32.22
-32.08
-30.50
-27.30
-22.54
-16.48
-9.63
-2.67
3.72
8.96
12.74
14.96
15.72
15.22
13.82
11.88
9.69
7.46
5.40
3.74
2.61
2.05
2.01
2.41
3.13
3.92
4.45
4.43
3.67
2.17
0.07
-2.34
-4.55
-6.20
-7.34
-8.37
-9.75
-11.75
-14.42
-17.55
-20.77
-23.15
-24.08
-23.88
-23.58
-24.22
-26.34
-30.00
-34.79
-40.01
-43.62
-44.10
-41.62
-37.68
-33.71
-30.31
-27.34
-24.18
-20.20
-13.18
-2.04
11.63
24.45
33.83
39.03
40.79
40.59
40.04
43.22
53.37
70.89
93.63
119.13
145.00
168.52
186.76
181.90
145.68
88.47
31.37
-11.54
-38.18
-53.61
-64.46
-75.48
-88.12
-98.30
-101.55
-96.28
-84.31
-68.51
-51.87
-37.12
-26.23
-19.84
-15.31
-9.64
-1.72
5.96
11.96
16.07
19.03
21.92
25.56
31.17
38.53
45.58
49.59
49.56
46.77
44.20
45.14
51.69
64.25
80.39
95.07
102.15
97.01
77.98
46.98
8.78
-30.61
-65.79
-93.81
-114.63
-130.18
-142.62
-153.24
-162.26
-169.38
-174.40
-177.43
-178.44
-176.61
-170.47
-158.67
-141.07
-119.44
-96.54
-74.41
-52.70
-28.42
2.34
41.59
87.39
133.81
173.23
199.64
211.07
209.59
199.39
184.13
165.31
142.61
115.55
85.14
54.26
26.70
5.36
-8.99
-17.81
-23.84
-29.65
-36.55
-44.43
-52.14
-58.44
-62.74
-65.44
-67.72
-70.96
-76.04
-82.91
-90.64
-97.84
-103.36
-106.72
-108.18
-108.40
-108.06
-107.43
-106.38
-104.51
-101.37
-96.69
-90.25
-81.81
-70.90
-56.81
-38.74
-16.16
10.78
41.00
72.56
102.91
129.57
150.67
165.32
173.55
175.89
173.11
165.89
154.98
141.27
125.93
110.17
94.97
80.70
67.05
53.29
38.79
23.45
7.83
-7.00
-19.95
-30.26
-37.70
-42.51
-45.16
-46.26
-46.46
-46.34
-46.42
-47.04
-48.37
-50.34
-52.73
-55.22
-57.53
-59.32
-60.25
-59.91
-57.87
-53.82
-47.71
-39.78
-30.58
-20.84
-11.27
-2.43
5.34
11.92
17.31
21.53
24.54
26.27
26.69
26.01
24.59
22.95
21.55
20.65
20.24
20.15
20.13
20.01
19.73
19.26
18.55
17.43
15.71
13.25
10.07
6.40
2.58
-1.04
-4.26
-7.05
-9.56
-11.96
-14.31
-16.54
-18.40
-19.63
-20.13
-20.03
-19.62
-19.23
-19.07
-19.16
-19.41
-19.75
-20.17
-20.80
-21.79
-23.19
-24.95
-26.91
-28.88
-30.81
-32.68
-34.46
-35.96
-36.83
-36.59
-34.81
-31.25
-25.98
-19.35
-11.94
-4.35
2.96
9.65
15.52
20.45
24.26
26.81
27.98
27.83
26.55
24.50
22.00
19.29
16.43
13.39
10.18
6.93
3.95
1.60
0.17
-0.27
0.13
1.08
2.28
3.54
4.79
6.05
7.34
8.66
9.92
11.03
11.85
12.21
11.98
11.08
9.49
7.37
4.95
2.47
0.13
-2.04
-4.05
-6.05
-8.14
-10.37
-12.75
-15.20
-17.63
-19.89
-21.85
-23.36
-24.38
-24.93
-25.12
-25.13
-25.15
-25.25
-25.38
-25.25
-24.49
-22.68
-19.52
-14.93
-9.01
-2.03
5.72
13.92
22.20
30.11
37.16
42.87
46.91
49.26
50.14
50.00
49.31
48.40
47.46
46.51
45.49
44.41
43.30
42.29
41.47
40.85
40.29
39.57
38.46
36.86
34.80
32.49
30.10
27.73
25.37
22.95
20.40
17.78
15.19
12.71
10.34
7.94
5.40
2.67
-0.15
-2.79
-4.99
-6.54
-7.45
-7.89
-8.22
-8.80
-9.95
-11.79
-14.25
-17.06
-19.86
-22.33
-24.33
-26.00
-27.66
-29.70
-32.35
-35.60
-39.10
-42.27
-44.41
-44.85
-43.14
-39.11
-32.93
-25.08
-16.25
-7.20
1.39
8.99
15.24
19.91
22.84
23.97
23.37
21.39
18.62
15.79
13.56
12.37
12.31
13.15
14.45
15.75
16.70
17.14
17.04
16.51
15.64
14.54
13.28
11.94
10.61
9.39
8.32
7.41
6.62
5.90
5.22
4.58
3.99
3.43
2.80
2.00
0.97
-0.24
-1.48
-2.60
-3.52
-4.33
-5.27
-6.57
-8.38
-10.67
-13.25
-15.85
-18.23
-20.28
-21.98
-23.48
-24.94
-26.49
-28.23
-30.15
-32.15
-34.01
-35.46
-36.16
-35.79
-34.07
-30.84
-26.06
-19.90
-12.66
-4.85
2.84
9.67
14.95
18.26
19.55
19.21
17.90
16.34
15.10
14.50
14.55
15.11
15.92
16.76
17.39
17.70
17.76
17.77
17.98
18.60
19.56
20.58
21.25
21.21
20.36
18.85
16.99
15.13
13.46
12.05
10.87
9.89
9.11
8.50
7.95
7.27
6.23
4.74
2.86
0.81
-1.09
-2.59
-3.61
-4.28
-4.85
-5.63
-6.79
-8.39
-10.36
-12.52
-14.69
-16.74
-18.60
-20.26
-21.82
-23.39
-25.06
-26.81
-28.37
-29.31
-29.03
-26.99
-22.83
-16.61
-8.79
-0.21
8.14
15.38
20.93
24.64
26.67
27.38
27.08
26.01
24.31
22.17
19.86
17.76
16.17
15.26
14.96
15.04
15.25
15.48
15.68
15.86
15.98
15.90
15.41
14.39
12.82
10.81
8.55
6.21
3.93
1.78
-0.14
-1.75
-3.04
-4.03
-4.92
-5.96
-7.48
-9.60
-12.29
-15.19
-17.87
-19.90
-21.11
-21.61
-21.81
-22.20
-23.20
-25.00
-27.50
-30.36
-33.14
-35.42
-36.93
-37.62
-37.58
-37.07
-36.32
-35.48
-34.52
-33.25
-31.38
-28.58
-24.59
-19.30
-12.78
-5.34
2.46
9.88
16.12
20.54
22.78
22.89
21.29
18.66
15.77
13.29
11.67
11.09
11.49
12.61
14.11
15.59
16.75
17.39
17.49
17.10
16.41
15.57
14.72
13.89
13.04
12.11
11.02
9.80
8.56
7.44
6.56
5.95
5.54
5.17
4.67
3.91
2.79
1.25
-0.72
-3.04
-5.58
-8.13
-10.47
-12.51
-14.23
-15.77
-17.27
-18.86
-20.57
-22.32
-24.05
-25.66
-27.11
-28.31
-29.14
-29.32
-28.48
-26.12
-21.86
-15.55
-7.47
1.66
10.77
18.75
24.76
28.47
30.06
30.06
29.09
27.61
25.84
23.86
21.67
19.40
17.26
15.51
14.44
14.15
14.56
15.41
16.33
16.93
16.94
16.25
14.92
13.16
11.28
9.58
8.30
7.51
7.08
6.76
6.24
5.25
3.76
1.90
-0.05
-1.83
-3.28
-4.45
-5.48
-6.56
-7.82
-9.31
-11.00
-12.84
-14.82
-16.93
-19.17
-21.54
-23.99
-26.43
-28.81
-31.07
-33.18
-35.19
-37.10
-38.88
-40.39
-41.31
-41.18
-39.50
-35.89
-30.22
-22.78
-14.25
-5.58
2.31
8.73
13.42
16.50
18.29
19.19
19.50
19.45
19.21
18.97
18.88
19.00
19.31
19.71
20.15
20.63
21.17
21.78
22.28
22.44
22.05
21.06
19.62
18.00
16.40
14.92
13.53
12.16
10.81
9.55
8.41
7.37
6.33
5.21
3.95
2.61
1.25
-0.04
-1.26
-2.44
-3.66
-4.97
-6.40
-8.02
-9.86
-11.98
-14.32
-16.73
-18.96
-20.79
-22.07
-22.94
-23.70
-24.77
-26.45
-28.78
-31.48
-33.91
-35.32
-35.01
-32.59
-28.01
-21.63
-14.05
-6.02
1.77
8.75
14.56
19.02
22.09
23.84
24.39
24.00
22.99
21.79
20.78
20.20
20.06
20.17
20.22
19.98
19.42
18.68
18.00
17.53
17.23
16.90
16.29
15.22
13.73
12.03
10.37
8.93
7.76
6.73
5.70
4.57
3.35
2.13
1.00
-0.02
-1.00
-2.06
-3.29
-4.71
-6.25
-7.88
-9.55
-11.27
-13.03
-14.73
-16.26
-17.55
-18.65
-19.72
-21.00
-22.64
-24.63
-26.79
-28.84
-30.47
-31.35
-31.22
-29.78
-26.82
-22.21
-16.09
-8.85
-1.16
6.26
12.70
17.72
21.14
23.01
23.55
23.05
21.84
20.24
18.58
17.19
16.30
16.02
16.26
16.83
17.45
17.93
18.19
18.22
18.05
17.71
17.17
16.42
15.43
14.22
12.83
11.36
9.90
8.54
7.34
6.29
5.32
4.30
3.10
1.64
-0.09
-2.04
-4.14
-6.32
-8.54
-10.76
-12.92
-15.03
-17.10
-19.17
-21.27
-23.38
-25.44
-27.35
-29.11
-30.79
-32.52
-34.41
-36.42
-38.32
-39.69
-40.03
-38.89
-35.92
-31.01
-24.32
-16.30
-7.69
0.68
8.04
13.88
18.03
20.64
22.03
22.54
22.46
22.05
21.54
21.17
21.12
21.40
21.88
22.34
22.58
22.60
22.54
22.65
23.04
23.65
24.25
24.53
24.25
23.34
21.84
19.87
17.52
14.88
12.08
9.33
6.92
5.08
3.92
3.27
2.76
1.93
0.48
-1.65
-4.19
-6.76
-8.99
-10.70
-11.95
-12.91
-13.81
-14.76
-15.83
-17.01
-18.37
-19.98
-22.00
-24.49
-27.36
-30.37
-33.19
-35.51
-37.13
-37.93
-37.82
-36.58
-33.91
-29.48
-23.15
-15.17
-6.19
2.87
11.01
17.56
22.21
25.09
26.55
26.99
26.71
25.91
24.76
23.47
22.35
21.65
21.53
21.92
22.59
23.20
23.51
23.39
22.88
22.10
21.15
20.06
18.82
17.45
15.99
14.55
13.22
12.01
10.88
9.76
8.57
7.29
5.91
4.37
2.64
0.69
-1.40
-3.44
-5.13
-6.23
-6.70
-6.78
-6.97
-7.82
-9.66
-12.46
-15.83
-19.24
-22.17
-24.40
-25.99
-27.22
-28.43
-29.91
-31.79
-34.06
-36.60
-39.16
-41.42
-42.95
-43.31
-42.11
-39.09
-34.18
-27.57
-19.69
-11.13
-2.58
5.26
11.88
16.92
20.32
22.20
22.84
22.60
21.82
20.82
19.87
19.17
18.84
18.91
19.30
19.83
20.32
20.63
20.72
20.65
20.49
20.24
19.83
19.15
18.11
16.72
15.09
13.38
11.74
10.26
8.99
7.92
7.06
6.39
5.84
5.23
4.35
2.99
1.07
-1.27
-3.76
-6.09
-8.07
-9.77
-11.38
-13.16
-15.19
-17.38
-19.50
-21.36
-22.95
-24.43
-26.09
-28.09
-30.44
-32.88
-35.03
-36.45
-36.82
-35.87
-33.43
-29.43
-23.87
-16.93
-8.99
-0.61
7.51
14.69
20.45
24.57
27.12
28.39
28.76
28.63
28.28
27.92
27.67
27.53
27.47
27.37
27.14
26.74
26.19
25.55
24.90
24.26
23.59
22.79
21.73
20.32
18.56
16.50
14.26
12.00
9.86
7.97
6.40
5.17
4.22
3.41
2.55
1.48
0.12
-1.53
-3.34
-5.21
-7.02
-8.77
-10.48
-12.21
-14.02
-15.90
-17.86
-19.84
-21.80
-23.69
-25.44
-27.04
-28.54
-30.06
-31.75
-33.73
-36.01
-38.43
-40.62
-42.02
-42.05
-40.18
-36.12
-29.95
-22.08
-13.23
-4.24
4.10
11.22
16.85
21.00
23.85
25.63
26.57
26.81
26.49
25.78
24.91
24.13
23.65
23.55
23.79
24.23
24.72
25.16
25.48
25.65
25.64
25.34
24.70
23.67
22.29
20.68
18.99
17.35
15.79
14.31
12.88
11.47
10.04
8.59
7.08
5.51
3.90
2.27
0.70
-0.80
-2.22
-3.63
-5.10
-6.69
-8.46
-10.42
-12.55
-14.83
-17.16
-19.48
-21.69
-23.76
-25.74
-27.76
-29.98
-32.53
-35.42
-38.47
-41.31
-43.40
-44.15
-43.07
-39.89
-34.68
-27.80
-19.88
-11.60
-3.60
3.61
9.71
14.52
18.04
20.33
21.51
21.75
21.25
20.28
19.12
18.07
17.35
17.08
17.21
17.62
18.18
18.83
19.51
20.13
20.54
20.52
19.93
18.78
17.27
15.70
14.28
13.10
12.07
11.04
9.89
8.56
7.06
5.43
3.71
1.93
0.17
-1.48
-2.96
-4.23
-5.39
-6.58
-8.03
-9.86
-12.13
-14.71
-17.36
-19.81
-21.86
-23.46
-24.76
-26.03
-27.59
-29.64
-32.16
-34.89
-37.35
-38.95
-39.16
-37.54
-33.91
-28.31
-21.12
-12.92
-4.42
3.63
10.58
16.04
19.85
22.13
23.18
23.32
22.85
22.02
20.98
19.92
19.00
18.43
18.32
18.70
19.38
20.09
20.52
20.47
19.92
19.03
18.00
17.01
16.11
15.24
14.33
13.36
12.35
11.38
10.47
9.61
8.68
7.58
6.21
4.59
2.85
1.13
-0.45
-1.85
-3.14
-4.46
-5.93
-7.63
-9.55
-11.61
-13.72
-15.81
-17.88
-19.91
-21.93
-23.96
-26.04
-28.29
-30.81
-33.62
-36.61
-39.44
-41.61
-42.57
-41.79
-39.00
-34.12
-27.41
-19.30
-10.42
-1.48
6.80
13.84
19.24
22.92
25.03
25.92
26.00
25.64
25.14
24.73
24.55
24.69
25.16
25.87
26.64
27.28
27.62
27.60
27.25
26.69
26.01
25.22
24.27
23.05
21.52
19.72
17.74
15.75
13.88
12.20
10.67
9.20
7.70
6.11
4.38
2.56
0.70
-1.21
-3.15
-5.12
-7.10
-9.03
-10.83
-12.51
-14.12
-15.78
-17.59
-19.55
-21.57
-23.52
-25.39
-27.24
-29.25
-31.52
-34.07
-36.71
-39.14
-41.02
-41.99
-41.76
-40.07
-36.72
-31.64
-25.00
-17.21
-8.89
-0.77
6.51
12.44
16.80
19.56
20.89
21.11
20.56
19.60
18.52
17.61
17.01
16.80
16.95
17.36
17.90
18.44
18.91
19.29
19.59
19.79
19.80
19.51
18.80
17.63
16.09
14.40
12.79
11.46
10.44
9.68
8.98
8.15
7.10
5.81
4.39
2.95
1.57
0.26
-1.08
-2.57
-4.31
-6.34
-8.60
-10.95
-13.21
-15.21
-16.91
-18.37
-19.78
-21.35
-23.22
-25.46
-27.99
-30.72
-33.53
-36.24
-38.56
-40.05
-40.18
-38.49
-34.76
-29.09
-21.87
-13.70
-5.24
2.91
10.20
16.24
20.82
23.91
25.68
26.47
26.58
26.33
25.90
25.44
25.05
24.79
24.72
24.80
24.97
25.11
25.11
24.89
24.39
23.56
22.38
20.86
19.06
17.10
15.14
13.33
11.74
10.34
8.99
7.56
5.98
4.27
2.54
0.93
-0.50
-1.82
-3.16
-4.68
-6.44
-8.44
-10.55
-12.70
-14.79
-16.83
-18.84
-20.84
-22.83
-24.80
-26.75
-28.77
-30.99
-33.57
-36.61
-40.07
-43.71
-47.11
-49.81
-51.40
-51.60
-50.27
-47.37
-42.92
-36.99
-29.84
-21.93
-13.98
-6.78
-1.03
2.86
4.90
5.46
5.11
4.49
4.11
4.37
5.47
7.43
10.10
13.22
16.58
20.33
25.16
32.44
43.92
61.04
84.07
111.41
139.54
163.78
179.75
184.67
178.06
161.59
138.18
111.18
83.83
59.21
40.17
28.95
26.50
31.89
42.42
54.51
65.06
72.49
76.92
79.44
81.00
81.68
80.69
76.94
69.87
59.80
47.75
34.86
21.82
8.52
-5.82
-22.06
-40.50
-60.48
-80.20
-97.15
-108.93
-113.94
-111.98
-104.21
-92.79
-80.12
-68.23
-58.35
-50.92
-45.88
-42.87
-41.54
-41.52
-42.46
-43.96
-45.66
-47.33
-48.95
-50.64
-52.42
-53.99
-54.69
-53.65
-50.24
-44.42
-36.82
-28.71
-21.49
-16.41
-14.33
-15.77
-21.14
-31.12
-46.86
-70.05
-102.57
-145.68
-198.97
-259.32
-320.72
-375.06
-414.06
-431.44
-424.84
-396.36
-351.71
-298.20
-242.65
-189.95
-142.82
-102.52
-69.81
-45.53
-30.46
-24.60
-26.52
-33.25
-40.91
-45.88
-45.93
-40.57
-30.80
-18.13
-3.77
11.80
28.57
46.44
64.82
82.51
98.12
110.60
119.79
126.36
131.52
136.40
141.58
146.98
152.00
155.98
158.52
159.60
159.40
158.07
155.63
152.04
147.33
141.74
135.68
129.55
123.53
117.52
111.26
104.53
97.32
89.82
82.31
75.00
67.90
60.91
53.90
46.91
40.16
33.99
28.68
24.25
20.44
16.75
12.67
7.87
2.46
-3.18
-8.44
-12.76
-15.71
-17.03
-16.56
-14.21
-9.97
-4.01
3.27
11.30
19.46
27.21
34.27
40.52
45.94
50.55
54.38
57.48
59.94
61.96
63.72
65.43
67.22
69.11
71.06
72.96
74.72
76.21
77.34
78.01
78.08
77.44
76.04
74.05
71.86
69.99
68.92
68.87
69.74
71.13
72.57
73.74
74.53
75.02
75.32
75.39
75.02
73.93
71.88
68.75
64.49
59.05
52.19
43.58
32.87
19.91
4.91
-11.44
-28.15
-43.99
-57.88
-69.01
-76.98
-81.89
-84.15
-84.42
-83.35
-81.47
-79.07
-76.22
-72.86
-68.81
-63.86
-57.70
-50.02
-40.59
-29.38
-16.67
-3.04
10.86
24.55
37.86
50.92
63.84
76.47
88.25
98.37
106.19
111.56
115.00
117.45
119.86
122.64
125.39
126.95
125.71
120.03
108.64
90.97
67.21
38.36
6.02
-27.85
-61.31
-92.90
-121.93
-148.65
-174.10
-199.59
-226.24
-254.52
-284.14
-314.27
-343.95
-372.41
-399.18
-424.01
-446.55
-466.18
-481.84
-491.92
-494.14
-485.74
-463.91
-426.57
-373.30
-305.82
-227.87
-144.58
-61.35
16.99
86.92
146.58
195.75
235.55
267.79
294.11
315.20
330.48
338.50
337.85
328.22
310.80
287.97
262.49
236.63
211.97
189.64
170.66
156.04
146.28
140.83
137.91
134.93
129.51
120.50
108.34
94.66
81.35
69.59
59.56
50.70
42.33
34.13
26.12
18.48
11.08
3.55
-4.54
-13.32
-22.52
-31.68
-40.51
-49.15
-57.90
-66.84
-75.24
-81.52
-83.61
-79.86
-69.90
-54.89
-37.28
-19.79
-4.47
7.88
17.57
25.28
31.49
36.20
39.16
40.27
39.76
38.06
35.43
31.69
26.20
18.11
6.53
-9.27
-29.85
-55.47
-86.02
-120.86
-158.71
-197.60
-234.92
-267.58
-292.41
-306.80
-309.39
-300.69
-283.05
-259.78
-233.95
-207.10
-178.93
-147.91
-112.50
-72.32
-28.59
16.36
59.99
100.34
136.42
168.20
196.22
221.20
243.67
263.72
280.91
294.40
303.22
306.70
304.84
298.36
288.60
277.06
264.96
252.82
240.34
226.51
209.75
188.45
161.42
128.59
91.36
52.59
15.84
-15.55
-39.40
-55.24
-64.23
-68.57
-70.60
-72.16
-74.24
-76.98
-79.57
-80.29
-76.91
-67.43
-51.01
-28.43
-2.11
24.67
48.58
67.41
80.60
89.05
94.70
100.21
108.80
123.65
146.71
176.79
209.90
240.35
262.48
272.45
269.38
255.57
235.36
212.85
189.09
163.28
134.09
100.39
61.13
15.42
-37.00
-95.11
-156.88
-220.95
-283.81
-339.25
-380.12
-401.84
-404.59
-392.61
-371.68
-347.51
-326.11
-309.90
-297.53
-286.65
-277.63
-274.71
-282.93
-304.40
-317.58
-305.18
-265.22
-210.31
-154.69
-108.08
-75.77
-60.61
-55.50
-54.44
-56.18
-61.03
-68.88
-78.34
-85.10
-85.95
-77.98
-58.80
-28.74
7.50
44.02
76.05
100.98
117.82
126.64
129.10
128.32
126.74
124.61
121.24
115.97
108.67
99.44
88.29
75.93
63.81
53.28
44.83
38.74
35.30
34.80
37.32
42.49
49.85
58.94
68.80
77.84
84.33
87.04
85.77
81.48
75.85
70.69
67.27
65.71
65.21
64.57
62.83
59.79
56.10
52.91
51.49
52.59
56.14
61.06
65.64
68.06
67.11
62.65
55.71
48.06
41.55
37.38
35.66
35.29
34.44
31.06
23.77
12.52
-1.24
-14.76
-24.73
-28.12
-22.91
-8.95
11.70
34.59
53.72
63.05
58.71
40.84
14.16
-13.48
-33.97
-42.25
-38.12
-25.87
-11.81
-1.16
3.92
4.32
2.36
-0.33
-3.89
-9.82
-19.42
-32.34
-46.17
-57.51
-63.80
-64.83
-62.75
-60.69
-60.75
-62.62
-63.98
-62.05
-55.26
-43.95
-29.61
-13.53
3.97
23.10
43.56
63.50
80.04
90.55
94.04
91.71
86.21
80.18
74.89
70.31
65.67
60.69
56.02
52.51
50.14
47.66
42.66
32.29
14.81
-9.87
-39.35
-69.20
-94.35
-110.81
-116.25
-110.64
-96.11
-75.55
-52.48
-29.93
-10.23
4.51
12.07
11.48
3.35
-10.38
-26.57
-43.15
-59.61
-74.83
-87.55
-98.18
-107.09
-113.12
-118.38
-121.06
-120.95
-119.41
-118.63
-117.09
-115.22
-112.65
-108.46
-101.81
-91.86
-79.08
-64.46
-49.05
-33.82
-20.09
-8.49
0.64
7.01
10.89
12.53
12.79
13.12
14.95
18.72
24.39
31.36
38.78
46.35
54.03
62.27
71.63
82.29
93.57
104.63
114.71
123.27
130.19
135.37
138.74
140.20
139.60
136.72
131.54
124.18
114.87
103.99
92.03
79.58
67.26
55.49
44.35
33.65
23.14
12.75
2.67
-6.82
-15.63
-24.09
-32.84
-42.39
-52.69
-62.96
-71.99
-78.60
-82.19
-82.87
-81.27
-78.22
-74.46
-70.53
-66.73
-63.18
-59.75
-56.15
-52.24
-48.35
-45.50
-45.18
-48.76
-56.57
-67.48
-78.85
-87.20
-89.14
-82.43
-66.62
-43.46
-16.57
9.33
29.75
41.65
44.41
39.85
31.35
22.47
15.62
11.44
9.14
7.41
5.35
3.02
1.20
0.93
2.85
6.92
12.46
18.51
24.12
28.57
31.38
32.27
31.12
27.97
23.24
17.81
12.99
10.30
11.07
15.96
24.65
35.87
47.82
58.75
67.45
73.55
77.33
79.35
79.99
79.32
77.12
73.26
67.98
61.91
55.87
50.43
45.65
41.16
36.43
31.21
25.72
20.50
15.99
12.18
8.52
4.20
-1.43
-8.43
-16.31
-24.27
-31.70
-38.42
-44.67
-50.88
-57.30
-63.75
-69.73
-74.61
-78.03
-80.08
-81.42
-82.98
-85.56
-89.41
-93.94
-97.82
-99.28
-96.62
-88.58
-74.71
-55.49
-32.32
-7.32
17.06
38.62
56.01
69.07
78.78
86.60
93.62
99.77
103.76
103.67
98.09
87.18
73.00
58.94
48.41
43.42
43.74
47.09
50.16
50.06
45.32
36.19
24.08
10.64
-2.88
-15.93
-28.25
-39.50
-48.89
-55.42
-58.29
-57.43
-53.64
-48.27
-42.57
-37.14
-31.78
-25.93
-19.31
-12.45
-6.55
-2.86
-1.90
-3.00
-4.65
-5.27
-4.04
-1.32
1.65
3.52
3.43
1.40
-2.02
-6.12
-10.40
-14.66
-18.90
-23.20
-27.68
-32.54
-38.01
-44.29
-51.24
-58.41
-65.11
-70.70
-74.87
-77.81
-80.03
-82.15
-84.60
-87.48
-90.47
-92.87
-93.72
-91.93
-86.70
-77.78
-65.90
-52.77
-40.75
-32.11
-28.20
-28.85
-32.41
-36.26
-37.91
-35.76
-29.72
-20.86
-10.87
-1.04
8.08
16.60
24.90
33.13
40.95
47.56
52.04
53.87
53.33
51.29
48.69
46.11
43.49
40.20
35.41
28.56
19.76
10.19
1.56
-4.62
-7.27
-5.70
0.48
11.19
25.59
41.86
58.07
71.85
80.88
83.95
81.83
77.00
72.11
68.62
66.12
64.60
63.42
61.22
56.60
49.12
39.31
27.99
15.94
4.09
-3.52
-3.47
4.58
17.82
32.42
45.19
54.11
58.59
59.39
61.68
69.69
83.91
101.69
120.97
142.20
167.69
199.73
215.71
199.91
154.26
94.78
35.81
-15.30
-55.28
-83.07
-99.59
-107.23
-105.09
-92.69
-72.36
-49.51
-30.16
-18.92
-18.06
-27.06
-42.78
-57.91
-66.25
-65.88
-58.87
-49.33
-40.64
-35.52
-36.13
-43.66
-56.13
-70.08
-81.84
-88.34
-87.29
-77.77
-60.95
-39.91
-18.51
0.66
16.05
26.99
33.63
37.18
39.91
44.41
52.50
65.40
83.25
104.89
128.44
151.99
174.17
194.35
212.42
228.74
243.92
258.24
271.00
279.94
281.59
272.53
251.20
219.05
180.47
141.18
105.99
77.33
55.13
38.01
24.69
14.82
8.62
6.04
5.98
6.31
4.73
-0.27
-8.97
-20.76
-34.96
-51.49
-71.08
-94.59
-122.08
-152.00
-181.21
-205.81
-222.27
-228.57
-224.48
-211.40
-191.66
-167.97
-143.04
-119.42
-99.46
-85.11
-77.66
-77.32
-83.07
-92.84
-104.16
-114.87
-123.76
-130.54
-135.36
-137.95
-137.11
-130.80
-116.79
-93.89
-62.88
-26.67
10.47
44.20
71.46
91.13
103.85
111.12
114.24
113.64
108.75
98.48
82.01
59.43
31.88
1.25
-30.35
-61.10
-89.67
-115.20
-137.23
-155.72
-171.22
-184.70
-197.35
-209.93
-222.10
-232.47
-238.55
-237.68
-228.13
-209.75
-183.88
-152.51
-117.58
-80.80
-44.12
-9.71
20.29
44.40
62.39
75.53
86.03
95.79
105.37
113.10
116.72
114.86
107.72
96.73
83.91
71.08
59.38
49.29
39.02
27.51
15.17
3.21
-7.62
-17.10
-25.21
-31.86
-37.14
-45.19
-58.89
-78.24
-101.24
-125.88
-150.66
-173.99
-194.32
-210.22
-226.39
-245.32
-265.22
-282.33
-294.87
-303.69
-310.50
-316.35
-320.40
-327.50
-338.02
-346.45
-345.73
-333.47
-312.81
-289.22
-267.10
-199.32
-68.91
102.55
274.41
418.46
523.62
587.41
615.49
616.28
597.35
559.58
507.38
449.93
397.29
355.04
326.05
309.67
302.21
298.55
287.87
263.40
225.50
180.10
134.14
93.24
60.86
37.84
22.94
10.15
-5.02
-23.28
-42.23
-59.12
-71.98
-79.82
-82.41
-79.69
-73.49
-65.12
-55.13
-43.89
-32.53
-22.57
-15.12
-10.23
-6.90
-4.17
-0.99
3.46
9.34
15.91
21.72
25.21
25.37
22.16
16.54
9.91
3.51
-2.21
-7.67
-13.86
-21.82
-32.05
-44.37
-58.07
-72.31
-86.32
-99.48
-111.20
-120.81
-127.62
-131.04
-130.82
-127.15
-120.88
-112.91
-103.83
-93.73
-82.40
-69.50
-54.72
-37.95
-19.24
1.07
22.79
45.99
70.60
96.00
120.73
142.81
160.16
171.16
174.33
169.18
156.31
137.14
113.43
87.09
60.06
33.86
9.22
-15.63
-42.14
-69.88
-96.33
-117.82
-130.46
-130.88
-117.12
-89.46
-53.85
-16.62
17.86
47.04
68.66
80.54
81.52
72.33
55.84
31.45
1.95
-25.97
-45.80
-56.44
-63.47
-76.06
-102.49
-146.47
-212.39
-295.61
-382.50
-456.85
-508.29
-535.35
-543.27
-539.84
-491.76
-391.64
-263.79
-145.27
-56.79
1.19
37.95
64.09
85.92
109.51
128.44
136.04
131.32
119.15
106.21
98.56
97.78
105.23
120.43
135.81
146.31
152.85
160.35
173.05
192.33
217.50
247.66
281.95
315.88
346.11
371.53
392.20
407.52
415.99
415.97
406.49
386.99
355.73
312.97
261.83
207.25
153.89
104.80
61.35
23.93
-7.69
-34.57
-57.45
-76.45
-91.53
-102.84
-110.78
-115.75
-117.87
-117.22
-114.01
-108.62
-101.62
-93.57
-84.98
-76.24
-67.68
-59.66
-52.65
-47.06
-43.05
-40.42
-38.63
-36.97
-34.85
-31.98
-28.42
-24.48
-20.59
-17.08
-14.10
-11.52
-9.00
-6.08
-2.31
2.54
8.33
14.55
20.44
25.22
28.33
29.66
29.51
28.52
27.48
27.04
27.62
29.30
31.88
34.96
38.11
40.99
43.44
45.53
47.50
49.71
52.42
55.72
59.45
63.20
66.38
68.31
68.42
66.39
62.17
55.99
48.24
39.29
29.47
19.01
8.10
-2.99
-14.01
-24.79
-35.36
-46.06
-57.37
-69.67
-82.94
-96.61
-109.74
-121.31
-130.60
-137.33
-141.52
-143.26
-142.45
-138.84
-132.23
-122.81
-111.30
-98.90
-86.85
-76.17
-67.34
-60.31
-54.71
-49.96
-45.52
-40.93
-35.94
-30.44
-24.61
-18.79
-13.46
-8.98
-5.46
-2.62
0.09
3.41
7.93
13.97
21.44
29.82
38.32
46.03
52.08
55.79
56.72
54.78
50.08
43.06
34.34
24.66
14.97
6.25
-0.53
-4.59
-5.48
-3.16
2.06
9.70
19.19
29.91
41.28
52.66
63.56
73.56
82.40
89.84
95.49
98.69
98.82
95.52
89.20
81.12
73.15
67.11
64.07
63.92
65.36
66.36
64.91
59.62
50.12
36.97
21.35
4.63
-12.03
-27.94
-42.79
-56.60
-69.66
-82.32
-94.90
-107.33
-118.79
-127.74
-132.37
-131.48
-125.33
-115.92
-106.38
-99.84
-98.26
-101.80
-109.21
-118.53
-128.01
-136.46
-143.20
-147.72
-149.54
-148.34
-144.28
-138.12
-131.10
-124.52
-119.23
-115.50
-112.97
-111.01
-109.01
-106.76
-104.43
-102.53
-101.58
-101.87
-103.37
-105.79
-108.80
-112.23
-115.99
-119.97
-123.74
-126.41
-126.73
-123.42
-115.63
-103.37
-87.72
-70.65
-54.55
-41.64
-33.26
-29.32
-28.00
-25.99
-19.30
-4.63
19.34
51.22
87.11
121.86
150.75
170.89
181.76
184.84
182.75
178.00
172.11
166.05
160.48
155.74
151.82
148.30
144.40
139.31
132.32
122.63
110.12
95.49
79.82
64.35
50.08
37.53
27.05
18.38
10.02
1.03
-8.42
-17.37
-24.31
-27.84
-27.31
-22.17
-13.29
-4.41
2.56
8.72
16.19
26.71
40.24
54.68
69.29
83.08
90.69
89.64
80.79
64.62
41.45
12.30
-19.96
-46.56
-59.19
-60.42
-53.69
-40.85
-24.86
-7.59
11.25
34.19
69.92
125.01
191.57
261.67
331.24
395.77
451.47
495.49
493.79
428.77
355.61
293.48
228.76
158.42
82.86
4.36
-74.85
-153.85
-228.10
-289.59
-336.01
-365.60
-380.55
-388.27
-393.87
-397.24
-393.93
-374.20
-331.15
-272.57
-209.89
-152.72
-108.85
-81.13
-67.19
-61.03
-53.62
-38.24
-17.23
5.54
28.35
50.45
72.22
94.13
116.64
136.73
154.60
168.39
176.90
180.66
180.77
178.99
176.48
173.36
170.66
163.27
147.01
121.93
93.31
68.92
55.30
53.89
60.39
65.53
60.63
43.57
19.87
-0.21
-8.38
-0.46
18.81
41.11
56.82
59.24
46.77
19.11
-22.19
-76.29
-142.29
-217.18
-282.19
-314.69
-301.74
-246.95
-165.58
-75.53
7.46
72.10
112.24
128.30
124.28
106.30
84.33
70.44
74.41
98.72
137.54
179.79
213.38
227.53
218.09
188.99
148.92
106.20
64.70
23.87
-18.53
-63.87
-112.52
-164.42
-219.17
-275.44
-329.60
-375.39
-405.42
-413.71
-399.10
-365.88
-322.88
-279.79
-242.85
-212.40
-184.17
-153.33
-116.97
-76.35
-34.19
4.58
33.88
48.12
44.14
21.72
-17.36
-67.28
-119.03
-158.01
-171.40
-152.91
-104.54
-33.72
49.52
133.22
209.46
274.25
331.90
386.88
439.68
486.94
526.02
556.72
577.34
589.05
565.79
499.65
407.11
315.24
239.13
178.88
131.64
81.94
23.09
-45.80
-117.31
-186.50
-248.63
-304.98
-358.23
-393.69
-404.87
-391.65
-363.72
-328.51
-290.87
-254.25
-222.16
-194.97
-171.07
-159.70
-157.61
-162.61
-171.30
-182.67
-198.88
-223.71
-257.40
-281.33
-286.18
-265.24
-219.96
-157.52
-89.74
-29.40
12.30
37.56
52.53
61.90
72.45
89.19
115.61
152.65
198.88
246.14
285.51
307.57
303.70
272.88
221.39
162.90
114.86
93.04
105.94
152.29
219.78
288.48
339.05
357.67
339.50
288.22
213.30
126.75
41.56
-30.52
-79.64
-98.35
-83.73
-39.05
25.86
96.31
155.81
190.70
192.93
161.73
103.09
27.26
-54.90
-134.70
-206.80
-268.65
-318.78
-355.66
-377.83
-385.41
-381.42
-371.64
-362.44
-357.65
-356.22
-352.47
-338.81
-309.69
-264.42
-207.70
-148.02
-94.76
-55.42
-33.51
-27.85
-33.28
-42.58
-48.92
-47.90
-38.50
-22.33
-1.73
22.18
50.41
85.36
128.74
179.59
233.88
285.59
329.00
360.21
377.55
380.82
370.26
346.33
310.10
264.07
212.56
161.09
114.97
77.46
48.41
24.11
-1.39
-33.63
-74.72
-121.55
-166.11
-198.10
-208.90
-195.11
-159.87
-111.48
-59.76
-12.38
27.28
60.07
89.41
119.29
152.67
190.50
230.98
269.32
298.25
309.83
298.40
263.23
209.48
146.81
86.39
37.43
5.05
-10.01
-10.42
-0.69
14.09
28.90
39.62
43.82
41.48
34.98
28.08
24.07
24.04
25.58
23.09
9.64
-20.20
-67.68
-128.46
-193.46
-251.45
-292.74
-312.16
-310.18
-291.98
-264.95
-236.16
-210.56
-190.46
-176.10
-166.41
-159.80
-154.44
-148.41
-139.92
-127.71
-111.40
-91.71
-70.31
-49.43
-31.09
-16.58
-6.10
1.15
6.46
11.01
15.45
19.73
23.42
26.05
27.49
28.05
28.33
28.99
30.54
33.14
36.68
40.82
45.18
49.37
53.10
56.21
58.59
60.30
61.47
62.29
62.98
63.73
64.64
65.70
66.70
67.33
67.15
65.80
63.05
58.95
53.79
48.01
42.04
36.16
30.45
24.82
19.17
13.49
8.06
3.31
-0.22
-2.11
-2.28
-0.98
1.22
3.66
5.77
7.21
7.90
7.93
7.43
6.54
5.30
3.79
2.03
0.07
-2.10
-4.45
-6.96
-9.56
-12.10
-14.38
-16.36
-18.11
-19.85
-21.78
-23.81
-25.46
-25.94
-24.45
-20.52
-14.37
-6.84
0.82
7.38
11.81
13.24
11.01
4.88
-4.42
-14.84
-23.29
-26.63
-23.10
-13.36
-0.36
11.82
19.80
22.28
20.19
15.98
11.90
8.88
6.37
3.16
-1.65
-8.20
-15.99
-24.33
-32.56
-40.33
-47.74
-55.03
-62.34
-69.56
-76.45
-82.71
-88.11
-92.00
-93.97
-94.15
-93.22
-92.06
-91.27
-91.12
-91.46
-92.01
-91.24
-88.21
-83.31
-77.93
-73.17
-68.85
-63.74
-56.52
-46.76
-32.82
-14.78
4.88
22.38
35.03
42.45
45.80
46.27
44.47
44.85
51.10
63.96
81.13
99.74
118.25
136.61
155.83
177.47
208.64
254.41
313.80
379.84
443.98
500.02
544.99
577.90
564.25
484.75
348.80
191.71
49.51
-58.97
-131.50
-174.93
-199.07
-213.03
-217.80
-211.53
-196.31
-177.91
-162.57
-154.10
-153.22
-158.52
-167.54
-173.37
-170.64
-158.52
-141.62
-125.32
-113.41
-107.31
-106.61
-109.73
-112.10
-110.20
-103.69
-95.04
-86.99
-80.60
-74.94
-68.30
-59.48
-47.50
-33.26
-19.70
-10.49
-8.13
-13.03
-23.77
-38.05
-53.49
-67.43
-77.27
-80.67
-75.58
-60.58
-35.62
-2.44
35.57
74.34
110.25
141.08
166.04
185.29
199.16
207.65
210.63
208.24
201.45
191.98
181.85
172.78
165.64
160.43
156.56
153.32
150.27
147.48
145.44
144.81
146.07
149.32
154.14
159.79
165.47
170.69
175.58
180.98
188.13
198.21
211.65
227.64
244.10
258.04
266.42
266.68
257.93
241.27
219.05
193.48
165.62
135.31
101.89
65.13
25.23
-16.57
-58.01
-95.77
-125.43
-141.95
-140.70
-119.68
-81.54
-35.38
6.80
34.74
43.80
36.15
18.77
-0.16
-15.01
-24.68
-35.27
-53.46
-82.38
-120.51
-164.02
-209.41
-254.64
-299.17
-343.52
-395.07
-457.98
-528.98
-597.69
-651.97
-682.92
-686.17
-661.15
-609.70
-545.78
-481.17
-420.87
-364.86
-315.13
-278.87
-264.54
-276.68
-312.91
-379.57
-476.98
-596.42
-723.11
-845.04
-957.90
-1062.66
-1162.41
-1171.13
-1044.23
-802.28
-516.08
-248.57
-25.15
154.86
299.65
415.00
504.04
555.34
563.63
536.78
492.46
448.76
414.79
392.35
379.95
376.32
369.70
351.52
321.44
286.47
254.63
230.28
215.57
208.50
208.80
209.79
206.47
198.53
189.97
184.99
185.19
190.26
199.28
212.15
225.76
238.19
249.91
263.03
278.65
295.08
308.61
315.01
311.64
296.72
270.88
237.20
200.14
164.02
132.09
106.57
88.75
79.21
77.15
80.49
86.40
92.32
96.88
100.21
103.49
107.99
114.32
121.80
128.66
132.65
131.83
125.10
112.50
95.04
74.48
52.85
31.91
12.83
-3.96
-18.50
-31.01
-41.47
-49.56
-54.81
-56.90
-56.00
-52.85
-48.63
-44.57
-41.76
-40.80
-41.89
-44.81
-49.20
-54.63
-60.65
-66.85
-72.89
-78.53
-83.70
-88.40
-92.68
-96.53
-99.77
-101.94
-102.36
-100.28
-95.03
-86.33
-74.46
-60.34
-45.42
-31.31
-19.30
-10.08
-3.67
0.50
3.16
4.99
6.38
7.36
7.68
6.82
4.17
-0.82
-8.35
-18.12
-29.30
-40.70
-51.12
-59.60
-65.63
-69.10
-70.27
-69.61
-67.75
-65.46
-63.55
-62.79
-63.77
-66.77
-71.65
-77.80
-84.23
-89.71
-93.10
-93.51
-90.52
-84.03
-74.27
-61.75
-47.33
-32.33
-18.42
-7.09
0.95
6.35
11.01
17.37
27.26
41.06
57.51
74.25
88.81
99.50
105.68
107.62
105.98
101.49
94.86
86.86
78.46
70.84
65.17
62.36
62.79
66.10
71.21
76.59
80.58
81.90
79.96
75.01
68.06
60.59
54.32
50.78
51.07
55.52
63.51
73.34
82.57
88.64
89.66
85.01
75.43
62.63
48.45
34.26
20.74
8.04
-3.77
-14.40
-23.34
-30.09
-34.39
-36.32
-36.23
-34.54
-31.76
-28.45
-25.26
-22.82
-21.48
-21.26
-21.81
-22.74
-23.76
-24.75
-25.63
-26.25
-26.32
-25.65
-24.34
-22.84
-21.66
-21.05
-20.69
-19.74
-17.31
-12.91
-6.74
0.36
7.36
13.36
17.86
20.81
22.32
22.57
21.72
19.89
17.27
14.12
10.80
7.74
5.39
4.09
3.97
4.84
6.23
7.44
7.88
7.11
5.09
2.02
-1.71
-5.73
-9.71
-13.40
-16.66
-19.57
-22.44
-25.71
-29.73
-34.35
-38.72
-41.42
-40.93
-36.30
-27.60
-15.95
-3.10
9.29
20.11
29.04
36.26
42.17
47.05
51.05
54.11
56.12
56.79
55.67
52.25
46.16
37.54
27.27
16.87
8.11
2.45
0.54
2.08
5.97
10.74
15.00
17.67
18.15
16.17
11.78
5.19
-3.21
-12.93
-23.29
-33.45
-42.39
-49.06
-52.53
-52.31
-48.54
-42.06
-34.15
-26.22
-19.38
-14.30
-11.21
-10.00
-10.40
-12.06
-14.52
-17.21
-19.52
-20.95
-21.28
-20.59
-19.23
-17.62
-16.06
-14.70
-13.51
-12.39
-11.23
-9.97
-8.60
-7.10
-5.54
-3.93
-2.35
-0.94
0.02
0.09
-1.18
-4.06
-8.33
-13.16
-17.25
-19.28
-18.40
-14.63
-8.73
-2.00
4.22
8.97
12.00
13.54
14.08
14.00
13.41
12.43
11.13
9.62
8.08
6.85
6.30
6.71
8.00
9.70
11.45
12.85
13.65
13.94
14.27
15.20
17.05
19.31
20.67
20.63
18.78
14.98
9.84
4.90
1.94
2.91
8.31
16.89
28.35
41.44
54.29
65.43
75.12
84.83
97.83
116.35
140.15
169.52
200.75
225.97
236.41
227.19
199.71
164.37
135.20
124.84
144.44
195.01
265.99
339.91
399.68
433.82
442.17
431.56
384.23
299.38
194.25
93.98
14.52
-34.69
-67.91
-94.80
-118.78
-140.33
-157.90
-169.65
-177.17
-184.35
-196.19
-215.31
-238.26
-260.56
-279.94
-294.04
-303.68
-312.43
-324.21
-343.16
-369.92
-399.17
-424.40
-441.24
-447.10
-442.66
-430.72
-395.59
-331.14
-244.60
-151.50
-65.82
6.77
68.09
122.10
171.79
217.53
254.61
278.42
288.17
286.50
278.10
268.80
260.09
252.80
247.31
241.57
234.60
227.90
224.01
224.95
228.72
231.77
231.57
227.20
217.27
200.85
181.48
162.03
144.42
124.75
98.72
65.12
26.07
-15.40
-56.15
-93.12
-124.28
-148.76
-173.74
-205.69
-246.31
-292.31
-339.07
-382.71
-420.31
-449.85
-469.82
-487.85
-510.43
-539.22
-571.69
-605.68
-641.88
-682.83
-730.91
-734.60
-666.22
-534.52
-377.71
-232.72
-118.17
-36.79
17.32
54.15
84.87
110.68
131.24
147.02
159.65
169.59
175.97
178.47
178.74
179.65
177.12
167.56
150.51
129.48
108.78
92.97
84.66
84.56
91.47
98.55
100.06
93.52
80.48
64.29
48.16
34.16
23.18
14.99
6.41
-4.76
-19.26
-35.80
-52.12
-65.85
-75.10
-78.30
-73.95
-66.09
-56.78
-47.31
-38.03
-28.72
-18.89
-8.15
3.83
17.07
31.20
46.27
61.97
77.92
93.80
109.47
124.83
139.97
155.22
171.31
189.76
211.64
236.80
263.26
287.22
303.97
309.34
301.18
279.91
248.65
211.68
173.30
137.04
105.36
79.86
61.44
50.28
45.64
46.04
49.28
52.96
55.13
54.57
50.66
43.20
32.08
17.36
-0.16
-18.52
-34.40
-43.69
-42.69
-29.58
-5.42
25.85
58.56
87.04
107.31
117.98
120.06
115.96
108.29
98.92
88.62
77.21
63.92
47.74
27.67
2.97
-26.34
-59.05
-92.55
-123.19
-147.19
-161.70
-165.60
-159.56
-145.56
-126.11
-103.68
-80.48
-58.47
-39.30
-24.12
-13.28
-6.25
-1.81
1.36
4.28
7.37
10.57
13.63
16.35
18.64
20.40
21.37
21.09
19.17
15.50
10.54
5.21
0.63
-2.37
-3.63
-3.70
-3.59
-4.23
-6.09
-9.00
-12.29
-15.29
-17.63
-19.41
-20.99
-22.71
-24.44
-25.65
-25.51
-23.30
-18.71
-12.03
-4.01
4.28
11.50
16.20
16.82
12.32
2.70
-10.55
-24.57
-35.98
-42.11
-42.02
-36.68
-28.33
-19.18
-10.51
-2.35
5.97
15.04
24.70
33.98
41.51
46.08
47.22
45.32
41.55
37.44
34.41
33.28
34.07
36.04
38.17
39.59
40.04
39.89
39.99
41.20
44.02
48.27
52.98
56.44
56.37
50.34
36.44
13.98
-15.82
-49.72
-83.00
-110.73
-129.20
-137.00
-135.25
-126.86
-115.26
-103.26
-92.36
-82.94
-74.65
-66.94
-59.14
-50.43
-39.82
-26.55
-10.65
6.64
22.93
35.54
42.49
43.34
39.21
32.15
24.13
16.41
9.37
2.97
-2.65
-6.94
-9.23
-9.20
-7.31
-4.76
-3.00
-3.03
-4.97
-8.08
-11.03
-12.49
-11.51
-7.81
-1.79
5.60
13.06
19.29
23.34
24.82
24.05
21.95
19.64
18.10
17.82
18.62
19.75
20.05
18.28
13.45
5.15
-6.19
-19.35
-32.57
-44.05
-52.50
-57.40
-59.01
-57.96
-54.97
-50.50
-44.89
-38.46
-31.74
-25.53
-20.63
-17.65
-16.69
-17.29
-18.64
-19.84
-20.25
-19.67
-18.30
-16.73
-15.61
-15.46
-16.41
-18.07
-19.54
-19.67
-17.40
-12.15
-4.06
5.99
16.63
26.33
33.86
38.54
40.27
39.40
36.42
31.81
25.95
19.28
12.39
6.11
1.37
-1.13
-1.06
1.34
5.43
10.38
15.43
19.97
23.57
25.94
26.94
26.68
25.48
23.74
21.68
19.19
15.81
10.91
4.15
-4.25
-13.36
-21.75
-27.88
-30.50
-29.10
-23.97
-16.17
-7.29
1.06
7.55
11.56
13.25
13.41
13.04
12.82
12.86
12.56
10.92
7.05
0.62
-7.79
-16.77
-24.48
-29.18
-29.83
-26.28
-19.17
-9.61
1.31
12.73
24.00
34.41
43.10
49.19
52.08
51.67
48.29
42.37
34.09
23.33
10.11
-4.93
-20.28
-33.84
-43.71
-48.93
-49.86
-47.83
-44.35
-40.45
-36.56
-32.83
-29.63
-27.66
-27.61
-29.50
-32.31
-34.16
-33.06
-27.79
-18.45
-6.33
6.63
18.71
28.81
36.49
41.78
44.78
45.55
44.18
40.87
36.04
30.32
24.51
19.47
16.08
15.02
16.59
20.50
25.82
31.27
35.53
37.81
38.00
36.63
34.54
32.36
30.19
27.55
23.65
17.84
9.87
0.10
-10.65
-21.37
-31.07
-38.98
-44.56
-47.55
-47.91
-45.90
-42.06
-37.10
-31.80
-26.75
-22.31
-18.60
-15.69
-13.76
-13.14
-14.21
-17.13
-21.65
-27.11
-32.54
-37.02
-39.92
-41.02
-40.42
-38.37
-35.09
-30.74
-25.41
-19.30
-12.75
-6.33
-0.73
3.34
5.33
4.94
2.19
-2.69
-9.35
-17.45
-26.61
-36.31
-45.73
-53.83
-59.47
-61.74
-60.25
-55.19
-47.25
-37.38
-26.49
-15.28
-4.14
6.79
17.43
27.69
37.36
46.03
53.25
58.67
62.14
63.77
63.78
62.48
60.09
56.79
52.82
48.47
44.09
40.00
36.40
33.28
30.55
28.04
25.59
23.08
20.45
17.69
14.78
11.71
8.47
5.02
1.34
-2.52
-6.48
-10.53
-14.80
-19.58
-25.23
-32.04
-40.06
-49.07
-58.62
-68.25
-77.53
-86.07
-93.32
-98.47
-100.41
-97.97
-90.23
-76.92
-58.68
-37.02
-14.10
7.58
25.66
38.32
44.60
44.57
39.27
30.38
19.87
9.47
0.52
-6.17
-10.20
-11.51
-10.34
-7.08
-2.18
4.12
11.90
21.42
32.80
45.58
58.53
69.90
78.02
81.95
81.89
78.99
74.87
70.88
67.64
64.93
61.97
57.87
52.13
44.82
36.61
28.43
21.12
15.16
10.63
7.37
5.27
4.32
4.57
6.01
8.42
11.32
14.18
16.56
18.21
19.15
19.55
19.71
19.99
20.68
21.94
23.68
25.63
27.35
28.44
28.67
28.01
26.66
24.95
23.27
21.96
21.22
20.99
20.94
20.55
19.28
16.80
13.11
8.61
3.96
-0.16
-3.15
-4.68
-4.76
-3.73
-2.20
-0.90
-0.46
-1.21
-2.98
-5.23
-7.33
-8.86
-9.85
-10.73
-12.04
-14.14
-17.06
-20.49
-23.93
-26.86
-28.87
-29.58
-28.69
-26.12
-22.09
-17.21
-12.29
-8.02
-4.68
-2.05
0.45
3.37
6.92
10.82
14.45
17.10
18.26
17.80
16.01
13.44
10.77
8.60
7.32
7.02
7.43
8.07
8.38
7.91
6.41
3.91
0.69
-2.82
-6.21
-9.24
-11.96
-14.67
-17.88
-21.95
-26.93
-32.40
-37.49
-41.21
-42.80
-42.00
-39.14
-34.94
-30.18
-25.40
-20.89
-16.71
-12.91
-9.72
-7.41
-6.20
-6.09
-6.85
-8.14
-9.72
-11.50
-13.56
-15.96
-18.57
-21.00
-22.79
-23.54
-23.11
-21.63
-19.46
-16.95
-14.41
-12.07
-10.24
-9.32
-9.80
-12.01
-15.90
-20.92
-26.10
-30.45
-33.23
-34.23
-33.66
-31.87
-29.10
-25.36
-20.55
-14.68
-8.07
-1.41
4.40
8.57
10.60
10.48
8.64
5.83
2.87
0.44
-1.15
-1.91
-2.16
-2.27
-2.48
-2.73
-2.72
-2.03
-0.37
2.29
5.66
9.23
12.49
15.05
16.68
17.32
16.95
15.68
13.80
11.80
10.34
9.99
10.95
13.00
15.53
17.88
19.60
20.59
20.97
20.92
20.51
19.71
18.55
17.24
16.04
15.24
14.91
14.97
15.23
15.53
15.75
15.80
15.52
14.67
13.03
10.60
7.59
4.39
1.39
-1.18
-3.21
-4.70
-5.63
-5.98
-5.86
-5.57
-5.52
-5.98
-6.88
-7.74
-7.85
-6.65
-4.07
-0.57
3.09
6.20
8.40
9.72
10.40
10.63
10.40
9.65
8.36
6.69
5.02
3.73
3.07
2.99
3.17
3.19
2.65
1.36
-0.62
-3.01
-5.40
-7.32
-8.40
-8.50
-7.77
-6.61
-5.51
-4.89
-5.00
-5.84
-7.33
-9.31
-11.62
-14.00
-16.11
-17.52
-17.84
-16.92
-14.88
-12.12
-9.08
-6.13
-3.45
-1.13
0.84
2.42
3.56
4.29
4.71
4.96
5.21
5.62
6.33
7.43
9.00
10.91
12.89
14.52
15.37
15.15
13.86
11.80
9.42
7.19
5.40
4.13
3.27
2.58
1.79
0.67
-0.94
-3.05
-5.48
-7.84
-9.63
-10.31
-9.62
-7.55
-4.52
-1.09
2.14
4.74
6.55
7.55
7.82
7.42
6.44
5.01
3.34
1.69
0.30
-0.72
-1.36
-1.67
-1.77
-1.69
-1.45
-1.03
-0.43
0.30
1.09
1.83
2.43
2.84
3.09
3.22
3.31
3.39
3.42
3.28
2.83
1.97
0.67
-0.97
-2.72
-4.32
-5.57
-6.34
-6.63
-6.44
-5.73
-4.43
-2.48
-0.00
2.63
4.82
5.91
5.40
3.24
-0.18
-4.06
-7.51
-9.79
-10.59
-10.05
-8.65
-6.99
-5.59
-4.77
-4.55
-4.70
-4.81
-4.33
-2.76
0.24
4.64
10.01
15.56
20.32
23.50
24.70
23.98
21.75
18.54
14.83
10.98
7.30
4.08
1.61
0.02
-0.67
-0.66
-0.14
0.72
1.87
3.31
4.88
6.30
7.18
7.24
6.47
5.18
3.83
2.86
2.46
2.60
3.07
3.62
4.07
4.32
4.25
3.76
2.80
1.41
-0.26
-1.98
-3.54
-4.81
-5.80
-6.58
-7.23
-7.77
-8.23
-8.61
-8.97
-9.30
-9.51
-9.39
-8.72
-7.38
-5.44
-3.17
-0.87
1.18
2.85
4.14
5.11
5.80
6.20
6.29
6.07
5.59
4.94
4.28
3.79
3.61
3.84
4.48
5.43
6.55
7.68
8.67
9.40
9.73
9.49
8.52
6.79
4.48
1.95
-0.35
-2.14
-3.40
-4.37
-5.41
-6.68
-8.11
-9.34
-10.00
-9.95
-9.31
-8.43
-7.63
-7.02
-6.44
-5.66
-4.56
-3.29
-2.27
-1.96
-2.69
-4.43
-6.81
-9.28
-11.31
-12.58
-13.07
-12.96
-12.54
-12.04
-11.61
-11.27
-11.03
-10.90
-10.91
-11.01
-11.04
-10.79
-10.03
-8.69
-6.96
-5.20
-3.85
-3.19
-3.23
-3.64
-3.87
-3.34
-1.58
1.53
5.73
10.40
14.67
17.64
18.71
17.67
14.83
10.95
6.95
3.69
1.75
1.32
2.22
3.99
5.98
7.48
7.87
6.79
4.30
0.85
-2.94
-6.47
-9.42
-11.74
-13.57
-15.05
-16.25
-17.22
-18.00
-18.71
-19.38
-19.93
-20.10
-19.57
-18.17
-15.98
-13.27
-10.37
-7.48
-4.61
-1.71
1.14
3.68
5.54
6.49
6.59
6.24
5.96
6.14
6.80
7.66
8.29
8.43
8.08
7.53
7.15
7.13
7.45
7.89
8.21
8.22
7.88
7.26
6.47
5.61
4.72
3.82
2.90
1.99
1.14
0.45
0.11
0.26
1.06
2.55
4.68
7.32
10.24
13.15
15.69
17.39
17.76
16.39
13.17
8.40
2.79
-2.64
-6.95
-9.48
-10.12
-9.24
-7.54
-5.77
-4.53
-4.14
-4.60
-5.72
-7.11
-8.37
-9.14
-9.25
-8.70
-7.72
-6.66
-5.96
-5.98
-6.96
-8.91
-11.62
-14.67
-17.55
-19.76
-20.97
-21.06
-20.03
-17.98
-15.04
-11.46
-7.66
-4.25
-1.96
-1.36
-2.64
-5.53
-9.40
-13.47
-17.13
-20.09
-22.44
-24.45
-26.44
-28.55
-30.58
-32.10
-32.43
-30.93
-27.16
-21.08
-13.15
-4.22
4.73
12.78
19.31
24.02
26.96
28.37
28.63
28.16
27.37
26.64
26.18
26.10
26.36
26.79
27.21
27.50
27.51
27.16
26.31
24.87
22.75
20.03
16.88
13.52
10.19
6.97
3.86
0.84
-2.05
-4.67
-6.79
-8.28
-9.18
-9.79
-10.47
-11.49
-12.87
-14.32
-15.38
-15.66
-14.98
-13.53
-11.72
-10.10
-9.09
-8.83
-9.16
-9.69
-9.95
-9.54
-8.26
-6.08
-3.07
0.71
5.31
10.90
17.56
25.17
33.27
41.02
47.35
51.25
52.00
49.50
44.24
37.23
29.59
22.22
15.59
9.71
4.39
-0.46
-4.64
-7.67
-9.11
-8.82
-7.14
-4.87
-2.88
-1.76
-1.61
-2.14
-2.89
-3.60
-4.25
-4.99
-5.94
-6.95
-7.71
-7.90
-7.47
-6.70
-6.09
-6.07
-6.70
-7.62
-8.31
-8.40
-7.97
-7.55
-7.82
-9.18
-11.51
-14.08
-15.85
-15.86
-13.67
-9.46
-4.00
1.71
6.72
10.42
12.69
13.74
13.98
13.76
13.23
12.28
10.70
8.29
5.04
1.14
-3.06
-7.15
-10.69
-13.25
-14.49
-14.32
-12.96
-10.98
-9.13
-7.96
-7.58
-7.55
-7.06
-5.47
-2.56
1.22
5.06
8.09
9.76
9.92
8.79
6.67
3.84
0.57
-2.91
-6.24
-9.08
-11.16
-12.50
-13.32
-13.91
-14.44
-14.75
-14.51
-13.31
-11.05
-7.99
-4.69
-1.85
-0.02
0.51
-0.31
-2.28
-5.01
-7.95
-10.44
-11.80
-11.58
-9.70
-6.54
-2.78
0.84
3.80
5.89
7.16
7.76
7.78
7.24
6.17
4.77
3.40
2.48
2.34
3.01
4.28
5.77
7.18
8.42
9.56
10.75
11.95
12.90
13.16
12.41
10.67
8.34
6.10
4.51
3.77
3.61
3.49
2.97
1.91
0.65
-0.24
-0.24
0.86
2.80
5.11
7.24
8.84
9.73
9.84
9.10
7.41
4.70
1.07
-3.11
-7.26
-10.67
-12.76
-13.28
-12.35
-10.42
-8.15
-6.18
-4.96
-4.64
-5.16
-6.25
-7.56
-8.80
-9.73
-10.27
-10.47
-10.46
-10.38
-10.40
-10.66
-11.21
-11.98
-12.78
-13.24
-12.97
-11.63
-9.06
-5.38
-0.89
3.98
8.77
13.07
16.53
18.93
20.20
20.47
19.99
19.02
17.77
16.31
14.68
13.00
11.50
10.51
10.29
10.82
11.80
12.71
13.10
12.64
11.24
8.98
5.97
2.36
-1.63
-5.74
-9.64
-13.08
-15.99
-18.46
-20.68
-22.75
-24.53
-25.69
-25.85
-24.79
-22.57
-19.53
-16.17
-12.96
-10.21
-8.05
-6.48
-5.40
-4.60
-3.83
-2.83
-1.49
0.03
1.30
1.76
1.00
-1.04
-3.94
-6.97
-9.28
-10.18
-9.38
-6.98
-3.47
0.33
3.41
4.87
4.08
0.99
-3.94
-9.82
-15.68
-20.73
-24.50
-26.76
-27.43
-26.43
-23.73
-19.50
-14.21
-8.63
-3.68
-0.17
1.44
1.13
-0.67
-3.25
-5.81
-7.69
-8.51
-8.22
-7.07
-5.47
-3.85
-2.48
-1.41
-0.56
0.23
1.01
1.64
1.88
1.51
0.44
-1.20
-3.14
-5.13
-7.00
-8.65
-9.95
-10.73
-10.68
-9.58
-7.37
-4.19
-0.44
3.50
7.22
10.48
13.20
15.46
17.46
19.48
21.74
24.28
26.78
28.71
29.40
28.46
25.94
22.44
18.79
15.78
13.80
12.72
12.04
11.17
9.71
7.67
5.34
3.19
1.60
0.73
0.54
0.81
1.28
1.71
1.87
1.59
0.69
-0.95
-3.38
-6.50
-9.97
-13.25
-15.64
-16.45
-15.27
-12.08
-7.37
-1.95
3.22
7.41
10.21
11.61
11.90
11.46
10.65
9.77
9.03
8.59
8.56
8.91
9.55
10.26
10.85
11.22
11.41
11.53
11.71
11.93
12.01
11.66
10.58
8.60
5.75
2.26
-1.36
-4.45
-6.41
-6.92
-6.12
-4.62
-3.32
-2.99
-4.03
-6.28
-9.24
-12.33
-15.12
-17.38
-19.03
-19.97
-20.12
-19.42
-18.03
-16.32
-14.78
-13.84
-13.66
-14.12
-14.91
-15.61
-15.82
-15.34
-14.08
-12.12
-9.68
-7.09
-4.69
-2.73
-1.29
-0.14
1.11
2.94
5.68
9.33
13.68
18.33
22.96
27.36
31.41
34.94
37.67
39.21
39.23
37.71
34.97
31.60
28.24
25.32
22.96
21.02
19.24
17.34
15.17
12.66
9.78
6.56
3.03
-0.74
-4.68
-8.69
-12.67
-16.57
-20.35
-23.95
-27.22
-29.88
-31.50
-31.53
-29.44
-24.89
-17.95
-9.09
0.73
10.33
18.53
24.52
28.06
29.52
29.66
29.24
28.76
28.28
27.62
26.74
25.99
26.23
28.49
33.56
41.49
51.55
62.42
72.75
81.73
89.35
96.29
103.59
112.04
121.86
132.64
143.44
153.38
162.10
169.91
177.75
186.85
198.24
212.23
228.22
244.74
260.07
272.61
281.06
284.13
280.30
267.75
244.66
209.92
163.65
107.24
42.57
-29.02
-106.96
-190.30
-275.88
-357.29
-425.51
-471.97
-491.19
-483.15
-453.21
-409.80
-361.05
-312.51
-266.96
-225.83
-191.56
-166.55
-152.47
-149.25
-154.60
-164.52
-174.63
-181.86
-185.48
-187.93
-191.64
-197.90
-207.15
-219.68
-235.77
-255.45
-277.84
-300.47
-320.31
-331.14
-325.27
-296.81
-244.30
-171.57
-86.54
0.92
89.43
169.30
229.75
265.82
280.70
281.49
273.95
260.92
243.73
224.16
203.66
185.36
172.25
164.39
158.72
150.91
137.79
118.53
94.87
68.62
43.90
26.32
20.36
27.57
45.97
70.61
94.83
112.30
118.32
109.96
91.13
69.14
50.50
38.39
32.50
30.62
30.59
31.07
32.24
35.18
39.88
44.97
48.29
48.26
44.69
38.77
32.29
26.77
23.31
21.60
20.31
17.66
12.45
4.59
-4.97
-14.82
-24.03
-31.84
-38.14
-43.23
-47.58
-51.85
-56.49
-61.69
-67.29
-73.22
-78.52
-81.59
-80.74
-75.07
-65.12
-52.47
-39.14
-27.18
-18.91
-15.86
-18.66
-27.39
-39.96
-54.68
-69.53
-82.24
-86.48
-79.72
-64.35
-46.54
-32.00
-23.42
-20.70
-21.84
-24.30
-25.89
-26.08
-24.58
-21.43
-16.59
-10.42
-2.78
6.12
15.94
26.36
36.71
47.49
59.49
73.37
88.65
103.42
114.94
120.91
120.85
111.70
94.96
74.24
53.65
36.18
22.99
13.69
7.22
2.64
-0.98
-3.64
-5.57
-7.14
-8.66
-10.15
-11.25
-11.44
-10.35
-8.18
-5.14
-1.94
0.59
1.85
1.67
0.27
-1.88
-4.20
-6.25
-7.47
-7.71
-7.15
-6.21
-5.34
-4.94
-5.16
-5.93
-7.06
-8.18
-9.10
-9.86
-10.66
-11.73
-13.17
-14.97
-17.02
-19.20
-21.43
-23.69
-25.88
-27.76
-28.90
-28.82
-27.22
-24.11
-19.84
-15.02
-10.29
-6.21
-3.12
-1.18
-0.29
-0.22
-0.59
-0.98
-1.06
-0.68
0.06
0.83
1.26
1.03
0.02
-1.66
-3.74
-5.87
-7.77
-9.34
-10.66
-11.95
-13.48
-15.50
-18.08
-21.22
-24.77
-28.48
-32.01
-34.94
-36.78
-37.10
-35.59
-32.19
-27.09
-20.67
-13.42
-5.81
1.79
9.10
15.92
22.10
27.39
31.55
34.34
35.64
35.54
34.33
32.45
30.29
28.14
26.02
23.77
21.14
17.91
13.98
9.43
4.42
-0.83
-6.13
-11.26
-16.09
-20.59
-24.84
-29.16
-33.98
-39.65
-46.20
-53.16
-59.56
-64.22
-66.16
-65.04
-61.21
-55.50
-48.62
-40.75
-31.22
-18.81
-2.33
18.71
43.69
70.99
98.66
125.27
150.45
174.63
198.32
221.07
240.88
254.59
258.94
251.55
231.57
199.98
159.67
115.71
75.40
47.64
41.15
61.59
108.78
175.50
248.98
314.74
361.28
383.41
382.70
365.35
338.58
307.71
275.07
240.82
204.54
166.58
128.09
90.22
53.13
15.60
-24.06
-66.67
-111.02
-153.93
-191.21
-219.36
-237.02
-245.39
-247.55
-247.18
-247.21
-249.14
-253.06
-258.37
-264.44
-271.04
-278.15
-285.60
-292.68
-298.21
-300.95
-300.10
-295.60
-287.95
-277.80
-265.49
-250.91
-233.57
-212.97
-188.75
-160.77
-129.17
-94.40
-57.47
-20.10
15.57
47.91
76.89
104.25
132.34
161.87
189.96
210.03
214.06
196.29
156.39
100.26
37.97
-20.07
-66.64
-99.23
-119.25
-129.92
-134.24
-134.32
-131.77
-128.39
-126.40
-127.80
-133.42
-142.20
-151.26
-156.78
-155.62
-146.86
-132.41
-116.58
-104.61
-100.72
-106.62
-120.94
-139.67
-157.43
-169.02
-171.03
-163.18
-148.82
-134.27
-126.69
-131.16
-148.13
-172.68
-196.34
-210.73
-211.43
-199.77
-181.82
-165.10
-155.03
-153.04
-157.02
-163.56
-170.20
-176.47
-183.19
-190.83
-198.13
-201.98
-198.51
-184.86
-160.62
-128.07
-91.25
-54.22
-19.44
13.01
45.12
79.76
119.35
165.03
216.46
272.05
329.19
384.50
434.04
473.91
501.09
514.34
514.55
504.44
487.54
467.14
445.55
424.01
402.92
382.34
362.20
342.43
323.03
304.03
285.57
267.87
251.30
236.41
224.04
215.25
210.82
210.60
213.18
216.25
217.72
216.89
215.08
215.10
219.85
230.87
247.48
267.04
286.00
300.98
309.55
310.31
302.65
286.41
261.78
229.31
190.05
145.55
97.81
49.13
1.93
-41.58
-79.88
-112.38
-139.67
-163.12
-184.46
-205.07
-225.47
-245.03
-262.29
-275.52
-283.48
-285.97
-283.90
-278.80
-272.20
-265.05
-257.45
-248.95
-238.99
-227.41
-214.59
-201.32
-188.35
-176.03
-164.15
-152.17
-139.77
-127.34
-115.96
-107.05
-101.49
-99.06
-98.41
-97.55
-94.83
-89.52
-81.99
-73.20
-64.06
-55.02
-46.14
-37.57
-30.07
-25.08
-24.43
-29.72
-41.63
-59.67
-82.19
-106.77
-130.47
-150.91
-167.06
-179.33
-189.07
-197.75
-206.21
-214.08
-220.06
-222.30
-219.89
-213.62
-205.55
-197.72
-190.76
-183.62
-174.07
-160.27
-141.09
-117.87
-94.04
-73.55
-58.83
-50.02
-45.68
-43.72
-42.81
-40.18
-35.19
-30.05
-28.60
-33.91
-46.80
-65.74
-86.11
-101.87
-101.21
-75.76
-24.79
44.24
119.35
187.50
236.85
261.88
264.08
260.65
269.36
299.86
350.87
415.04
483.98
550.32
612.37
670.50
735.98
812.82
892.55
958.67
998.97
1011.67
1002.26
981.46
887.02
694.75
433.07
162.87
-69.76
-248.90
-370.72
-456.90
-519.76
-566.69
-592.04
-594.45
-576.81
-550.36
-525.08
-505.48
-493.10
-484.92
-478.73
-464.92
-438.24
-401.16
-362.36
-329.28
-304.85
-289.24
-278.76
-270.22
-256.19
-232.60
-200.83
-166.73
-135.57
-109.75
-89.87
-74.07
-60.66
-45.88
-27.36
-5.15
18.64
41.99
63.76
82.94
99.10
111.42
120.01
125.09
126.76
125.05
120.44
113.89
106.30
98.65
91.57
85.52
80.90
78.15
77.52
78.90
81.70
84.71
86.45
85.50
81.10
73.36
63.31
52.53
42.63
34.81
29.52
26.56
25.18
24.43
23.43
21.56
18.64
14.81
10.42
5.79
1.08
-3.75
-8.71
-13.67
-18.24
-21.81
-23.78
-23.74
-21.68
-17.93
-13.12
-8.06
-3.58
-0.41
0.95
0.38
-1.85
-5.08
-8.44
-11.03
-12.07
-11.17
-8.58
-5.22
-2.62
-2.47
-5.90
-12.92
-22.14
-31.16
-37.52
-39.62
-37.32
-31.89
-25.29
-19.33
-15.04
-12.62
-11.62
-11.39
-11.27
-10.67
-9.05
-6.04
-1.72
3.11
6.77
7.18
2.59
-7.44
-21.48
-36.47
-48.67
-55.06
-54.48
-47.90
-37.79
-26.91
-17.16
-9.10
-2.26
4.17
10.65
17.08
23.08
28.33
32.76
36.38
38.96
39.85
38.08
32.84
24.00
12.53
0.34
-10.27
-17.41
-20.28
-19.32
-15.95
-11.80
-8.11
-5.27
-2.87
-0.14
3.59
8.47
14.02
19.29
23.10
24.42
22.59
17.64
10.30
1.91
-5.93
-11.88
-15.20
-15.93
-14.64
-12.13
-8.99
-5.50
-1.73
2.14
5.62
7.84
7.89
5.25
0.12
-6.57
-13.50
-19.42
-23.63
-26.07
-27.05
-26.99
-26.01
-23.93
-20.43
-15.45
-9.41
-3.15
2.31
6.16
8.10
8.35
7.53
6.41
5.57
5.32
5.58
6.05
6.37
6.29
5.81
5.21
4.93
5.41
6.89
9.32
12.33
15.37
17.80
19.23
19.75
20.00
20.82
23.10
27.39
33.68
41.17
48.28
53.14
54.14
50.61
42.92
32.48
21.39
11.87
5.55
2.83
3.33
6.27
11.21
17.81
26.02
35.88
47.25
59.42
70.41
78.30
82.03
82.48
80.66
77.96
75.66
74.82
75.85
76.85
75.96
72.22
67.03
60.47
52.37
42.29
30.43
17.28
1.11
-19.01
-42.27
-64.64
-85.05
-103.84
-122.42
-141.36
-160.20
-180.28
-200.68
-217.96
-225.26
-221.43
-209.43
-195.19
-183.96
-159.68
-114.76
-53.30
-5.05
26.05
40.35
44.24
38.77
24.95
4.31
-24.38
-61.41
-105.14
-149.80
-193.10
-234.33
-274.24
-312.63
-347.93
-378.79
-400.62
-405.84
-384.45
-332.58
-252.22
-150.42
-35.75
83.26
197.41
298.36
378.84
434.47
462.14
463.14
443.95
415.12
387.09
365.63
351.13
340.22
329.15
314.69
295.80
272.90
246.85
217.69
184.41
146.13
103.39
58.72
15.67
-22.09
-51.93
-72.88
-85.74
-92.57
-95.75
-97.14
-97.76
-97.86
-97.41
-96.50
-95.55
-95.14
-95.66
-97.05
-98.82
-100.16
-100.34
-98.93
-96.10
-92.51
-89.11
-86.72
-85.63
-85.42
-85.19
-83.93
-81.16
-77.12
-72.80
-69.50
-68.32
-69.79
-73.74
-79.54
-86.36
-93.52
-100.49
-106.97
-112.76
-117.73
-121.88
-125.59
-129.73
-135.71
-145.11
-159.08
-177.92
-201.23
-228.52
-259.80
-295.63
-336.09
-379.35
-420.60
-452.48
-467.09
-458.81
-426.51
-373.94
-308.12
-236.66
-165.37
-97.28
-33.11
27.45
84.83
139.28
191.28
241.98
292.98
345.25
397.94
447.58
488.52
514.66
521.76
509.19
480.55
442.47
402.46
366.65
338.46
318.45
305.27
296.78
290.91
285.89
280.05
271.54
258.47
239.27
213.26
181.11
144.90
107.49
71.79
39.86
12.49
-10.72
-30.87
-49.02
-65.67
-80.59
-93.07
-102.36
-108.21
-111.01
-111.63
-111.00
-109.67
-107.60
-104.31
-99.24
-92.07
-82.97
-72.34
-60.65
-48.21
-35.16
-21.66
-8.10
4.78
16.00
24.59
29.86
31.61
30.15
26.24
20.87
15.05
9.69
5.43
2.58
1.15
0.87
1.34
2.05
2.57
2.52
1.75
0.27
-1.73
-3.92
-5.94
-7.48
-8.32
-8.40
-7.81
-6.77
-5.56
-4.46
-3.70
-3.32
-3.21
-3.16
-2.88
-2.17
-0.96
0.66
2.53
4.49
6.50
8.52
10.57
12.58
14.42
15.94
16.98
17.44
17.35
16.83
16.14
15.65
15.78
16.91
19.27
22.77
27.06
31.54
35.58
38.61
40.23
40.27
38.71
35.62
31.18
25.57
19.02
11.72
3.92
-4.09
-11.87
-18.89
-24.58
-28.49
-30.54
-30.95
-30.24
-28.99
-27.65
-26.45
-25.44
-24.58
-23.88
-23.41
-23.25
-23.44
-23.92
-24.52
-25.01
-25.17
-24.88
-24.13
-23.05
-21.80
-20.57
-19.46
-18.49
-17.61
-16.78
-15.95
-15.18
-14.55
-14.16
-14.09
-14.43
-15.29
-16.74
-18.81
-21.40
-24.22
-26.85
-28.74
-29.45
-28.72
-26.56
-23.31
-19.45
-15.50
-11.82
-8.59
-5.79
-3.30
-1.07
0.92
2.58
3.82
4.58
4.93
5.01
5.01
5.13
5.48
6.08
6.87
7.74
8.56
9.26
9.81
10.19
10.40
10.41
10.14
9.50
8.47
7.12
5.56
3.95
2.45
1.13
-0.07
-1.29
-2.71
-4.45
-6.56
-8.96
-11.50
-13.97
-16.23
-18.20
-19.93
-21.53
-23.17
-24.98
-27.03
-29.28
-31.47
-33.20
-33.97
-33.37
-31.13
-27.29
-22.17
-16.27
-10.15
-4.29
1.02
5.67
9.67
13.04
15.78
17.81
19.04
19.44
19.06
18.01
16.50
14.69
12.76
10.83
9.05
7.55
6.42
5.65
5.11
4.59
3.87
2.78
1.34
-0.31
-1.92
-3.25
-4.12
-4.45
-4.35
-3.96
-3.51
-3.17
-3.03
-3.06
-3.13
-3.10
-2.86
-2.41
-1.83
-1.28
-0.89
-0.75
-0.90
-1.29
-1.79
-2.14
-1.98
-0.93
1.33
4.91
9.61
14.98
20.45
25.40
29.33
31.88
32.87
32.28
30.20
26.80
22.28
16.93
11.09
5.12
-0.62
-5.69
-9.66
-12.11
-12.78
-11.61
-8.56
-3.63
3.11
11.45
21.01
31.27
41.73
51.98
61.79
71.27
80.63
89.88
98.58
106.07
111.70
115.30
117.06
117.43
117.23
117.04
116.68
115.07
111.06
103.96
94.27
83.01
71.21
60.29
51.16
43.36
35.02
24.11
9.33
-8.68
-28.50
-48.55
-66.32
-79.61
-88.12
-93.89
-99.80
-108.20
-118.62
-128.93
-135.55
-132.25
-112.65
-73.25
-15.44
55.63
132.46
208.49
277.27
323.50
333.63
307.44
260.26
210.79
174.22
147.91
127.65
109.29
88.86
66.31
42.83
18.71
-7.52
-37.68
-72.82
-110.86
-149.06
-185.08
-216.54
-242.72
-265.51
-288.51
-313.97
-340.36
-360.86
-367.02
-352.04
-312.49
-249.84
-170.30
-83.19
1.68
75.75
133.38
171.22
188.58
188.22
175.84
158.51
142.46
131.49
126.18
124.79
124.17
121.46
115.52
107.30
98.95
92.86
90.63
92.25
96.17
99.46
99.19
93.51
82.07
65.55
45.21
22.38
-1.73
-25.87
-49.10
-70.83
-91.24
-111.68
-134.78
-162.77
-195.77
-230.87
-262.49
-284.70
-292.90
-285.26
-263.25
-232.07
-197.50
-164.09
-134.60
-109.82
-91.31
-80.00
-75.49
-76.18
-82.19
-92.67
-105.45
-117.54
-124.99
-127.91
-127.46
-124.81
-121.34
-122.75
-133.56
-155.28
-186.13
-220.53
-257.09
-294.06
-327.78
-353.67
-372.65
-385.79
-393.32
-394.85
-388.32
-379.42
-374.60
-377.89
-354.04
-283.10
-168.51
-34.07
75.13
162.58
234.32
291.87
335.80
361.02
358.97
327.60
273.53
210.16
155.17
117.27
100.02
103.23
122.55
146.38
162.38
161.30
139.51
101.39
51.55
-2.13
-49.44
-80.90
-92.55
-84.42
-59.90
-25.09
13.26
45.04
62.07
61.07
44.19
17.04
-12.04
-34.37
-43.21
-34.55
-9.40
28.37
73.61
120.95
165.27
203.18
233.83
258.72
281.83
307.99
342.24
387.80
444.72
508.22
569.69
618.83
646.20
646.81
622.01
578.50
524.80
468.58
413.08
358.26
302.48
243.66
182.24
122.13
70.39
34.49
21.21
31.89
62.56
103.25
139.42
157.71
150.01
115.88
60.13
-8.91
-85.82
-170.00
-251.09
-316.26
-356.76
-369.40
-351.91
-315.46
-262.59
-201.28
-143.63
-104.14
-94.59
-113.60
-155.39
-209.66
-266.88
-320.46
-370.54
-400.43
-399.47
-368.23
-315.83
-254.69
-193.27
-135.86
-83.29
-36.35
5.67
42.33
67.17
85.50
102.20
120.60
142.09
167.01
194.05
222.12
248.50
270.73
288.24
304.24
318.69
330.06
336.24
334.75
324.02
302.19
268.48
224.28
170.90
109.39
41.29
-31.40
-106.15
-179.74
-249.36
-312.39
-366.38
-410.61
-446.14
-474.56
-497.55
-516.11
-530.43
-540.48
-546.18
-547.64
-546.04
-543.42
-542.04
-544.32
-552.47
-567.85
-589.91
-615.02
-636.30
-644.97
-633.20
-596.77
-536.92
-459.97
-374.99
-290.61
-212.75
-144.19
-85.60
-37.27
0.11
25.60
39.01
41.65
36.31
26.49
15.27
4.71
-4.36
-11.79
-17.51
-21.03
-21.47
-17.85
-9.72
2.45
17.24
32.56
46.29
56.90
63.77
67.25
68.28
67.98
67.22
66.45
65.68
64.73
63.47
61.95
60.46
59.35
58.98
59.57
61.17
63.65
66.77
70.22
73.67
76.83
79.52
81.70
83.55
85.46
87.85
91.15
95.54
100.99
107.23
113.96
121.01
128.46
136.69
146.13
157.15
169.76
183.61
198.00
212.15
225.35
237.17
247.57
257.10
266.98
278.92
294.54
314.36
336.73
357.59
371.33
372.74
359.10
331.29
293.48
251.67
211.86
178.71
155.03
141.71
137.93
141.19
147.52
152.19
150.98
141.59
124.41
102.19
78.59
56.64
37.64
21.21
6.20
-8.10
-21.29
-31.88
-37.98
-38.41
-33.32
-24.41
-14.40
-6.19
-2.08
-3.11
-8.71
-16.76
-23.88
-26.19
-20.30
-4.20
21.98
55.87
93.27
129.19
159.06
179.89
190.89
193.33
189.82
183.02
174.57
164.72
152.77
138.09
120.97
102.97
86.32
73.02
64.06
59.01
56.49
54.63
51.69
46.33
37.85
26.21
12.12
-3.10
-17.78
-30.30
-39.45
-44.62
-45.93
-44.09
-40.38
-36.43
-33.97
-34.46
-38.76
-46.93
-58.19
-71.05
-83.81
-95.10
-103.93
-109.66
-111.49
-108.32
-98.93
-82.58
-59.68
-32.12
-3.08
23.96
46.13
61.89
71.22
75.02
74.53
70.83
64.65
56.44
46.50
35.07
22.52
9.59
-2.61
-12.77
-19.88
-23.70
-24.84
-24.49
-23.83
-23.61
-23.96
-24.61
-25.36
-26.35
-28.08
-31.15
-35.95
-42.47
-50.33
-58.97
-67.91
-76.80
-85.16
-92.11
-96.26
-96.04
-90.55
-80.34
-67.63
-55.75
-47.86
-45.76
-49.28
-56.63
-65.43
-73.70
-80.31
-84.86
-87.19
-87.10
-84.47
-79.62
-73.42
-66.87
-60.32
-52.88
-42.48
-26.61
-3.60
26.23
60.28
94.24
123.51
144.70
156.44
159.42
155.65
147.41
136.56
124.41
111.86
99.59
87.99
77.00
66.06
54.45
41.83
28.89
17.42
9.86
8.37
13.92
25.85
41.95
59.03
73.72
83.10
85.24
79.47
66.47
48.23
27.58
7.52
-9.68
-22.65
-31.64
-38.59
-45.12
-51.44
-56.64
-59.39
-59.10
-56.74
-54.32
-54.21
-58.25
-65.98
-74.68
-81.36
-84.25
-83.65
-81.53
-79.31
-77.91
-78.92
-82.41
-87.46
-93.83
-101.65
-110.59
-118.91
-120.75
-110.64
-89.73
-60.00
-23.72
14.31
48.42
74.15
89.25
99.40
110.01
116.09
116.78
117.99
126.60
149.79
192.97
256.95
344.82
450.73
548.31
618.98
659.52
673.42
669.02
655.58
639.79
635.61
650.00
665.72
673.82
678.55
683.69
691.38
701.52
641.07
475.01
313.39
197.75
104.50
28.47
-33.95
-86.26
-132.14
-175.15
-206.59
-220.48
-232.83
-251.51
-272.34
-292.56
-310.99
-327.85
-344.27
-352.81
-348.77
-344.72
-347.12
-353.04
-360.32
-367.71
-374.86
-382.05
-384.61
-380.10
-377.46
-381.82
-391.70
-404.63
-416.91
-424.27
-422.98
-408.60
-380.22
-344.89
-309.25
-277.08
-251.16
-232.79
-221.80
-216.92
-215.09
-213.13
-209.85
-204.06
-194.87
-183.03
-170.48
-159.38
-151.08
-145.54
-141.45
-136.97
-130.59
-121.57
-109.95
-96.17
-80.74
-64.21
-47.48
-31.93
-19.27
-11.00
-7.61
-8.19
-10.71
-12.93
-13.54
-12.62
-11.51
-11.83
-14.48
-19.12
-24.33
-28.49
-30.66
-30.91
-30.18
-29.59
-29.77
-30.59
-31.47
-31.86
-31.71
-31.34
-31.13
-31.11
-30.84
-29.64
-27.03
-23.01
-18.01
-12.63
-7.20
-1.73
4.08
10.58
18.01
26.58
36.48
47.84
60.46
73.43
84.93
92.41
93.21
85.37
68.16
42.47
10.92
-22.55
-53.53
-77.99
-93.21
-98.27
-94.03
-82.60
-66.67
-48.94
-31.69
-16.56
-4.51
4.20
9.95
13.54
15.89
17.80
19.75
21.73
23.40
24.22
23.71
21.65
18.26
14.41
11.38
10.51
12.59
17.63
24.78
32.76
40.31
46.60
51.24
54.22
55.84
56.82
58.40
62.04
68.96
79.34
91.95
104.27
113.21
116.27
112.32
101.76
85.94
66.51
44.79
21.99
-0.36
-20.08
-34.63
-41.90
-41.20
-33.61
-21.65
-8.44
2.97
9.84
9.65
-0.03
-21.12
-54.26
-97.86
-147.84
-198.26
-242.67
-275.73
-294.28
-297.63
-287.01
-264.68
-233.10
-194.53
-151.26
-105.99
-62.21
-23.79
5.96
25.61
36.47
42.34
48.06
57.35
71.14
87.19
101.44
110.13
111.83
107.95
101.75
96.45
93.55
92.44
91.28
88.32
82.99
75.90
68.26
61.04
54.53
48.64
43.37
39.12
36.60
36.22
37.62
39.62
40.64
39.54
36.28
32.03
28.64
27.73
29.69
33.14
35.20
32.63
23.32
7.47
-12.34
-32.23
-48.76
-60.29
-67.34
-71.77
-75.39
-78.92
-81.87
-83.04
-81.29
-75.81
-65.82
-50.26
-28.05
0.86
34.37
68.02
96.24
114.55
121.61
119.65
113.14
106.50
102.07
99.68
97.58
93.98
88.30
81.18
73.82
67.03
60.73
54.10
46.11
36.05
23.90
10.34
-3.28
-15.34
-24.38
-29.61
-31.22
-30.33
-28.52
-27.21
-27.21
-28.68
-31.23
-34.17
-36.75
-38.16
-37.66
-34.71
-29.28
-21.96
-13.84
-6.14
0.31
5.29
8.99
11.56
12.75
12.01
9.03
4.39
-0.34
-3.06
-2.24
2.20
8.68
14.67
17.92
17.57
14.52
10.84
8.72
9.53
13.34
19.17
25.54
31.03
34.57
35.51
33.62
29.11
22.65
15.39
8.62
3.49
0.47
-0.80
-1.44
-2.95
-6.53
-12.52
-19.87
-26.24
-28.53
-23.94
-11.19
8.87
33.26
57.88
78.87
93.90
102.55
106.01
106.21
104.96
103.42
101.96
100.36
97.94
93.68
86.29
74.50
57.56
35.68
10.54
-14.80
-36.48
-50.89
-55.81
-51.26
-39.50
-24.26
-9.46
2.21
9.94
14.85
19.06
24.56
32.17
41.03
48.77
52.10
47.99
34.74
12.99
-14.21
-41.90
-64.74
-78.65
-82.08
-76.26
-64.40
-50.34
-37.05
-25.96
-17.02
-9.41
-2.29
4.60
10.88
15.68
17.78
15.79
8.45
-4.78
-23.08
-43.88
-63.15
-76.54
-80.88
-75.35
-61.84
-44.21
-26.81
-12.99
-4.23
-0.15
0.76
0.16
-0.59
-0.55
0.98
4.57
10.39
17.84
25.35
30.63
31.45
26.59
16.63
3.91
-8.26
-16.73
-19.66
-17.05
-10.43
-1.99
6.44
14.07
21.07
28.01
34.99
41.16
44.90
44.55
39.33
29.77
17.58
4.92
-6.39
-15.30
-21.49
-25.03
-26.05
-24.73
-21.56
-17.55
-14.34
-13.98
-18.15
-27.48
-40.97
-55.99
-69.09
-77.16
-78.52
-73.44
-63.81
-52.16
-40.85
-31.51
-25.07
-21.89
-21.82
-24.10
-27.36
-29.89
-30.28
-28.10
-24.06
-19.73
-16.79
-16.30
-18.38
-22.23
-26.48
-29.58
-30.24
-27.93
-22.99
-16.67
-10.55
-5.93
-3.35
-2.49
-2.55
-2.82
-3.06
-3.48
-4.49
-6.35
-9.04
-12.39
-16.19
-20.10
-23.60
-25.91
-26.23
-24.11
-19.74
-14.01
-8.10
-3.16
0.18
1.84
2.26
2.08
2.01
2.58
4.14
6.87
10.83
16.00
22.32
29.53
37.17
44.48
50.56
54.61
56.13
55.07
51.65
46.19
39.06
30.83
22.49
15.49
11.34
10.91
13.83
18.47
22.50
23.91
21.79
16.50
9.28
1.57
-5.43
-10.93
-14.41
-15.60
-14.69
-12.58
-10.77
-10.82
-13.57
-18.66
-24.62
-29.67
-32.38
-32.34
-30.08
-26.66
-23.16
-20.44
-18.98
-19.10
-20.94
-24.40
-29.06
-34.21
-38.89
-42.19
-43.41
-42.35
-39.35
-35.23
-31.01
-27.55
-25.13
-23.51
-22.15
-20.52
-18.34
-15.46
-11.66
-6.59
0.00
7.81
15.80
22.37
25.97
25.83
22.29
16.68
10.64
5.50
1.99
0.25
0.03
1.00
2.79
4.96
7.01
8.45
8.94
8.44
7.26
6.10
5.93
7.74
12.09
18.67
26.19
32.79
36.73
37.14
34.37
29.60
24.21
18.99
13.98
8.79
3.17
-2.55
-7.56
-11.04
-12.58
-12.39
-11.13
-9.53
-8.01
-6.70
-5.45
-4.09
-2.59
-1.06
0.17
0.65
-0.19
-2.84
-7.50
-13.78
-20.59
-26.35
-29.43
-28.70
-23.98
-16.07
-6.51
2.93
10.76
16.06
18.52
18.39
16.29
13.20
10.41
9.42
11.64
17.98
28.36
41.48
55.02
66.26
73.04
74.51
71.38
65.42
58.64
52.42
47.20
42.67
38.32
33.72
28.57
22.59
15.70
8.33
1.70
-2.32
-2.12
2.60
10.28
17.92
22.47
22.34
18.11
11.89
6.10
2.13
-0.11
-1.58
-3.18
-5.02
-6.41
-6.55
-5.15
-2.71
-0.18
1.58
2.33
2.60
3.36
5.51
9.43
14.70
20.36
25.43
29.43
32.61
35.64
38.96
42.35
44.77
44.89
41.77
35.31
26.46
16.74
7.66
0.23
-5.22
-8.84
-10.93
-11.66
-11.03
-8.97
-5.57
-1.30
3.09
6.81
9.33
10.57
10.81
10.32
8.99
6.31
1.67
-5.12
-13.48
-22.14
-29.58
-34.61
-36.77
-36.41
-34.51
-32.23
-30.63
-30.45
-31.96
-34.97
-38.80
-42.46
-44.94
-45.46
-43.66
-39.79
-34.64
-29.34
-25.05
-22.56
-21.96
-22.51
-22.88
-21.64
-17.80
-11.26
-2.92
5.54
12.06
14.84
12.88
6.45
-2.91
-12.68
-20.17
-23.41
-21.87
-16.61
-9.91
-4.38
-2.01
-3.72
-9.32
-17.92
-28.44
-39.98
-51.67
-62.54
-71.23
-76.11
-75.55
-68.31
-54.09
-33.70
-9.17
16.56
40.06
58.00
67.90
68.55
60.47
45.84
28.07
11.15
-1.31
-6.89
-4.72
4.46
18.61
34.87
49.98
60.76
64.60
60.13
47.79
30.00
10.74
-5.65
-15.81
-18.47
-14.54
-6.50
2.76
10.84
16.25
18.32
16.98
12.66
6.34
-0.47
-5.95
-8.58
-7.78
-4.21
0.38
3.96
5.04
3.29
-0.49
-4.86
-8.45
-10.52
-11.11
-10.83
-10.42
-10.27
-10.29
-10.09
-9.37
-8.29
-7.46
-7.67
-9.36
-12.28
-15.44
-17.53
-17.55
-15.46
-12.35
-10.11
-10.54
-14.54
-21.63
-29.97
-36.91
-39.79
-36.80
-27.50
-13.06
4.04
20.68
34.13
42.86
46.95
47.79
47.19
46.53
46.05
44.98
42.16
36.96
29.70
21.50
13.74
7.34
2.49
-1.21
-4.24
-6.72
-8.32
-8.54
-7.18
-4.50
-1.22
1.90
4.39
6.20
7.51
8.43
8.83
8.48
7.18
4.90
1.81
-1.86
-5.83
-9.82
-13.46
-16.26
-17.83
-17.90
-16.51
-13.95
-10.63
-6.97
-3.31
0.06
3.00
5.45
7.53
9.41
11.17
12.59
13.15
12.27
9.67
5.68
1.15
-2.82
-5.38
-6.28
-5.95
-5.17
-4.67
-4.83
-5.62
-6.67
-7.57
-7.85
-6.92
-4.01
1.57
9.99
20.26
30.08
36.37
36.44
29.21
16.05
0.43
-13.29
-21.42
-22.17
-16.01
-5.01
8.07
20.64
30.63
36.60
37.62
33.35
24.21
11.51
-2.65
-15.81
-25.82
-31.52
-33.26
-32.63
-31.84
-32.70
-35.89
-40.60
-44.91
-46.54
-43.74
-35.90
-23.65
-8.65
6.92
20.90
31.62
38.12
40.33
39.04
35.64
31.72
28.64
27.32
28.17
31.07
35.48
40.45
44.79
47.27
46.97
43.50
37.09
28.47
18.75
9.15
0.87
-5.20
-8.71
-10.02
-10.11
-10.19
-11.26
-13.62
-16.86
-20.00
-22.14
-22.89
-22.65
-22.30
-22.82
-24.72
-27.89
-31.64
-35.25
-38.22
-40.46
-42.15
-43.50
-44.58
-45.40
-46.01
-46.63
-47.55
-48.83
-50.05
-50.32
-48.67
-44.45
-37.62
-28.81
-18.92
-8.91
0.36
8.16
13.91
17.25
18.27
17.57
16.09
14.76
14.08
13.89
13.38
11.40
6.86
-0.99
-12.42
-27.17
-44.49
-63.32
-82.33
-100.17
-115.72
-128.35
-138.15
-145.85
-152.62
-159.57
-167.42
-176.23
-185.46
-194.28
-201.90
-207.82
-211.93
-214.52
-216.40
-218.91
-223.60
-231.50
-242.19
-253.19
-260.27
-258.78
-245.45
-219.68
-183.79
-141.90
-98.21
-55.54
-14.66
25.28
65.97
109.00
155.03
203.18
250.72
293.36
326.11
345.02
348.60
338.34
318.11
292.59
265.76
240.38
218.59
202.67
195.55
200.23
218.58
250.38
293.65
345.87
405.25
470.65
540.18
609.50
671.07
715.57
735.19
726.83
693.61
643.71
587.21
532.59
484.52
443.66
407.97
374.67
341.44
307.05
271.36
235.07
199.43
165.99
136.00
109.97
87.66
67.99
49.28
29.39
6.38
-20.49
-49.19
-74.12
-86.91
-79.37
-47.47
5.61
69.50
129.97
174.18
195.23
193.59
175.14
147.31
115.68
82.77
49.03
14.58
-19.84
-53.43
-86.72
-122.17
-163.32
-213.37
-273.32
-341.56
-414.16
-486.51
-555.07
-618.64
-678.26
-736.41
-795.84
-858.16
-922.67
-985.24
-1038.38
-1072.93
-1081.32
-1060.03
-1010.91
-940.40
-857.17
-769.16
-681.33
-595.28
-511.17
-430.99
-358.04
-295.12
-242.40
-196.81
-153.23
-106.32
-52.10
9.80
73.35
130.32
174.26
203.25
219.68
228.21
234.43
244.37
261.74
282.71
300.92
311.22
312.30
305.46
291.64
270.80
243.80
210.02
162.55
94.79
4.65
-103.53
-222.26
-345.04
-466.66
-578.85
-632.72
-592.41
-457.96
-272.79
-95.71
31.47
95.87
101.23
80.71
65.40
70.15
96.77
139.47
192.60
256.98
330.84
407.99
480.08
537.90
571.74
576.68
554.35
513.24
464.74
427.28
400.88
381.30
360.61
328.21
276.53
204.78
119.32
25.25
-69.59
-161.99
-249.64
-331.59
-406.95
-472.50
-522.95
-552.24
-557.61
-540.89
-509.19
-468.57
-423.03
-374.18
-321.62
-264.47
-201.10
-131.89
-58.53
15.80
89.77
163.43
237.23
311.42
385.46
460.85
538.05
616.51
693.19
763.41
820.33
855.97
863.90
841.20
792.44
723.83
641.38
549.41
452.04
354.14
261.57
180.63
97.99
12.88
-69.00
-140.58
-198.40
-241.61
-269.86
-286.02
-292.00
-290.53
-282.57
-271.11
-258.25
-246.53
-236.92
-229.03
-221.94
-214.34
-205.51
-192.98
-176.08
-155.76
-134.06
-112.80
-93.29
-76.46
-62.58
-51.69
-42.15
-33.02
-24.19
-16.33
-10.20
-6.44
-5.53
-7.40
-11.59
-16.51
-20.71
-23.11
-23.22
-20.92
-16.50
-10.68
-4.35
1.40
5.88
8.50
8.89
6.88
2.60
-3.54
-10.97
-19.00
-26.98
-34.34
-40.70
-45.84
-49.76
-52.54
-54.23
-54.85
-54.35
-52.61
-49.60
-45.34
-40.00
-33.85
-27.22
-20.52
-14.14
-8.47
-3.77
-0.21
2.22
3.68
4.40
4.63
4.49
3.97
2.98
1.50
-0.36
-2.29
-3.91
-4.93
-5.24
-5.03
-4.62
-4.29
-4.20
-4.29
-4.39
-4.38
-4.28
-4.24
-4.47
-5.03
-5.80
-6.47
-6.72
-6.35
-5.37
-4.03
-2.62
-1.45
-0.72
-0.55
-0.94
-1.89
-3.24
-4.74
-6.00
-6.59
-6.19
-4.72
-2.36
0.51
3.43
6.00
7.99
9.31
9.98
10.15
10.02
9.83
9.80
10.08
10.62
11.06
10.73
8.79
4.41
-2.90
-13.10
-25.64
-39.65
-54.24
-68.79
-82.99
-96.69
-109.60
-121.07
-130.14
-135.84
-137.62
-135.63
-130.61
-123.57
-115.27
-106.01
-95.69
-84.22
-71.80
-59.16
-47.16
-36.41
-26.77
-17.28
-6.47
7.11
24.33
45.19
68.88
94.01
119.11
142.99
165.08
185.69
205.86
227.18
251.26
278.97
309.80
341.29
369.31
388.78
395.21
386.19
362.42
327.64
287.54
247.97
213.37
185.76
164.87
148.96
135.92
124.11
112.58
100.94
89.02
76.65
63.69
50.16
36.27
22.44
8.99
-4.15
-17.58
-32.36
-49.63
-70.01
-93.18
-117.72
-141.36
-161.52
-175.94
-183.30
-183.43
-177.28
-166.64
-153.81
-141.12
-130.67
-124.05
-122.16
-125.13
-132.28
-142.21
-152.90
-161.93
-166.86
-165.71
-157.52
-142.85
-123.83
-103.70
-85.85
-72.57
-64.20
-59.07
-54.37
-47.58
-37.92
-26.95
-18.05
-15.36
-22.15
-39.55
-65.79
-96.20
-123.96
-141.53
-142.71
-124.96
-91.06
-49.19
-10.83
12.88
15.04
-4.70
-40.44
-82.67
-122.18
-152.97
-173.32
-184.74
-189.93
-191.16
-189.72
-186.49
-182.86
-181.02
-183.12
-189.88
-199.43
-207.39
-208.23
-197.58
-174.48
-141.99
-106.72
-76.32
-56.51
-48.80
-50.18
-54.92
-57.18
-53.41
-43.14
-29.07
-16.29
-11.08
-19.25
-44.18
-85.11
-136.08
-186.88
-225.45
-243.50
-240.74
-225.78
-212.25
-212.47
-231.84
-266.37
-305.60
-335.86
-348.37
-342.32
-323.18
-297.40
-268.07
-234.44
-192.96
-141.66
-77.66
-2.80
77.03
154.79
226.65
293.39
357.85
424.38
494.61
574.02
663.28
756.55
842.66
911.08
956.35
977.65
981.18
974.45
973.06
986.91
1016.04
1051.31
1082.45
1103.67
1112.72
1113.33
1049.06
891.27
651.79
377.37
115.30
-107.60
-273.65
-399.29
-495.33
-568.36
-614.49
-633.27
-625.61
-600.56
-568.49
-537.18
-512.00
-492.08
-475.86
-454.87
-423.15
-379.88
-330.77
-282.62
-241.39
-211.66
-193.53
-186.65
-186.26
-188.70
-192.24
-198.14
-206.69
-217.34
-228.40
-236.12
-238.12
-232.33
-219.36
-201.64
-183.87
-159.59
-125.26
-81.26
-31.05
20.90
71.66
115.78
153.60
183.62
204.18
213.58
212.48
203.08
189.30
174.70
160.72
147.19
132.06
114.22
93.33
71.12
50.63
34.65
24.17
17.73
12.66
5.64
-5.03
-19.63
-36.75
-54.40
-71.31
-87.64
-105.36
-127.06
-155.08
-189.75
-229.25
-269.81
-306.34
-333.88
-347.89
-347.29
-335.41
-319.74
-309.31
-311.95
-331.73
-366.58
-408.73
-443.94
-458.28
-442.83
-396.14
-323.22
-233.14
-137.38
-45.87
33.68
101.11
158.51
207.86
250.34
287.97
324.30
362.15
404.54
451.82
507.19
570.21
635.76
695.25
741.39
771.19
784.37
785.24
744.03
649.09
513.86
369.26
240.18
133.75
52.74
-18.39
-87.60
-155.84
-214.74
-257.66
-282.50
-292.91
-295.32
-295.14
-296.49
-298.97
-301.11
-297.39
-284.60
-263.83
-239.85
-217.57
-199.44
-186.53
-176.89
-168.88
-159.13
-146.07
-130.70
-115.97
-104.48
-96.82
-92.46
-88.96
-84.33
-76.32
-64.14
-48.63
-31.78
-15.27
0.29
14.87
29.15
43.31
57.34
70.62
82.22
91.28
97.47
101.08
102.55
102.44
100.87
97.69
92.65
85.77
77.46
68.48
59.77
52.18
46.22
41.98
39.22
37.52
36.38
35.34
34.03
32.13
29.48
26.10
22.23
18.30
14.73
11.88
9.87
8.62
7.86
7.34
6.84
6.31
5.71
5.12
4.61
4.23
4.04
4.08
4.37
4.92
5.72
6.72
7.86
9.08
10.28
11.34
12.08
12.32
11.88
10.58
8.37
5.28
1.44
-2.95
-7.68
-12.56
-17.42
-22.12
-26.48
-30.30
-33.33
-35.33
-36.11
-35.60
-33.85
-31.10
-27.76
-24.34
-21.34
-19.02
-17.43
-16.44
-15.85
-15.57
-15.59
-15.94
-16.48
-16.91
-16.85
-16.02
-14.46
-12.52
-10.68
-9.34
-8.67
-8.59
-8.94
-9.59
-10.52
-11.79
-13.38
-15.20
-17.08
-18.84
-20.34
-21.48
-22.16
-22.28
-21.71
-20.37
-18.26
-15.45
-12.08
-8.32
-4.37
-0.47
3.17
6.34
8.94
10.96
12.49
13.70
14.73
15.69
16.61
17.40
17.95
18.19
18.16
18.00
17.96
18.28
19.14
20.58
22.45
24.49
26.37
27.82
28.72
29.17
29.47
30.07
31.42
33.84
37.33
41.58
45.98
49.78
52.35
53.30
52.59
50.52
47.52
43.92
39.92
35.53
30.67
25.27
19.39
13.30
7.51
2.67
-0.60
-1.73
-0.37
3.54
9.69
17.48
26.07
34.73
42.87
50.05
56.10
61.01
64.72
67.24
68.58
69.01
69.16
69.82
71.23
73.37
75.70
77.12
76.57
73.24
67.23
59.78
52.65
46.58
41.88
37.96
33.23
26.17
15.35
0.68
-16.38
-33.73
-50.71
-66.71
-81.67
-96.40
-111.70
-129.48
-151.57
-178.87
-210.75
-245.21
-275.63
-292.52
-287.56
-256.75
-204.92
-143.55
-86.37
-32.98
14.01
53.88
88.49
114.00
132.36
142.07
139.96
127.13
105.53
76.99
44.37
9.79
-26.57
-64.84
-106.00
-149.59
-193.49
-235.49
-275.37
-312.94
-347.20
-375.13
-390.43
-386.20
-356.89
-300.87
-222.13
-129.30
-31.48
64.19
152.74
230.61
293.30
336.15
356.39
355.34
338.94
316.59
297.22
285.77
282.12
282.15
280.72
274.30
261.62
242.94
219.15
191.27
160.56
128.99
99.04
73.03
52.29
36.65
24.79
14.99
5.92
-2.98
-11.55
-19.39
-26.27
-32.27
-37.65
-42.54
-46.62
-49.26
-49.84
-48.24
-45.23
-42.31
-41.12
-42.69
-46.82
-52.13
-56.73
-59.31
-59.79
-59.46
-60.35
-64.36
-72.51
-84.71
-100.02
-117.04
-134.46
-151.44
-168.09
-185.86
-207.71
-237.92
-280.89
-339.26
-411.97
-493.30
-573.53
-641.38
-687.33
-706.36
-698.90
-669.73
-625.54
-572.51
-514.87
-455.06
-394.64
-335.04
-277.68
-223.48
-172.18
-122.38
-72.14
-20.05
33.96
88.75
142.26
192.69
239.22
282.23
323.09
363.44
404.51
446.47
488.11
526.97
559.98
584.41
598.89
603.96
601.85
595.39
586.70
576.18
562.50
543.38
516.83
482.21
440.48
393.71
344.39
294.68
246.24
200.23
157.58
118.99
84.88
55.25
29.77
7.70
-11.86
-29.75
-46.70
-63.11
-79.06
-94.26
-108.20
-120.32
-130.18
-137.65
-142.87
-146.27
-148.33
-149.50
-150.10
-150.37
-150.49
-150.52
-150.43
-149.92
-148.45
-145.39
-140.21
-132.74
-123.16
-111.99
-99.81
-87.07
-73.89
-60.03
-44.96
-28.06
-8.87
12.72
36.14
60.14
82.86
102.15
116.15
123.64
124.45
119.32
109.72
97.41
84.02
70.83
58.65
47.91
38.70
31.02
24.74
19.75
15.90
13.03
10.95
9.51
8.67
8.41
8.76
9.70
11.06
12.50
13.55
13.77
12.86
10.80
7.84
4.37
0.73
-2.86
-6.33
-9.71
-12.96
-15.98
-18.60
-20.74
-22.43
-23.80
-25.05
-26.30
-27.64
-29.00
-30.31
-31.50
-32.50
-33.25
-33.73
-33.94
-33.92
-33.78
-33.61
-33.42
-33.19
-32.86
-32.44
-32.03
-31.83
-32.09
-32.95
-34.40
-36.21
-37.96
-39.13
-39.26
-38.04
-35.47
-31.78
-27.40
-22.78
-18.25
-14.02
-10.13
-6.60
-3.46
-0.79
1.28
2.70
3.49
3.79
3.82
3.81
3.99
4.56
5.58
7.04
8.82
10.72
12.52
14.05
15.22
16.02
16.52
16.76
16.79
16.60
16.23
15.74
15.25
14.85
14.62
14.53
14.52
14.46
14.22
13.65
12.62
11.05
8.93
6.31
3.36
0.24
-2.94
-6.09
-9.20
-12.25
-15.18
-17.89
-20.30
-22.33
-23.95
-25.14
-25.90
-26.25
-26.28
-26.12
-25.94
-25.94
-26.26
-26.99
-28.12
-29.52
-30.91
-31.90
-32.06
-31.03
-28.72
-25.27
-21.08
-16.66
-12.45
-8.70
-5.48
-2.72
-0.34
1.65
3.23
4.31
4.88
5.00
4.88
4.71
4.64
4.68
4.77
4.82
4.80
4.83
5.07
5.67
6.66
7.95
9.35
10.72
12.05
13.49
15.24
17.49
20.29
23.47
26.76
29.85
32.50
34.61
36.23
37.43
38.27
38.76
38.81
38.34
37.27
35.63
33.51
31.11
28.64
26.28
24.13
22.19
20.32
18.38
16.27
14.00
11.74
9.74
8.22
7.35
7.09
7.22
7.37
7.10
6.04
4.12
1.59
-0.87
-2.30
-1.79
1.30
7.06
15.06
24.46
34.25
43.63
52.09
59.51
66.08
72.05
77.65
82.92
87.72
91.80
94.99
97.26
98.80
99.86
100.65
101.14
101.04
100.00
97.81
94.60
90.95
87.63
85.30
84.18
83.88
83.56
82.24
79.27
74.62
68.98
63.47
59.17
56.60
55.41
54.40
51.99
46.83
38.40
27.35
15.19
3.77
-5.58
-12.67
-18.65
-25.67
-36.29
-52.44
-74.59
-101.09
-128.03
-149.74
-160.06
-154.21
-130.70
-92.29
-45.64
0.82
39.66
66.83
82.35
89.06
90.40
88.27
82.34
70.99
52.97
28.69
0.17
-30.14
-60.91
-92.86
-128.37
-170.29
-220.58
-279.43
-344.93
-412.81
-476.81
-529.17
-561.80
-568.14
-545.30
-495.75
-427.37
-351.39
-278.85
-217.10
-168.00
-128.77
-94.72
-62.33
-30.71
-1.09
25.24
48.60
71.14
95.35
122.10
149.66
174.39
193.03
204.78
211.99
218.88
229.07
243.63
260.45
275.28
283.85
283.65
274.69
258.96
239.13
217.38
194.87
171.99
148.98
126.40
105.11
85.79
68.47
52.39
36.30
19.10
0.31
-19.72
-40.04
-59.50
-77.12
-92.25
-104.59
-114.07
-120.77
-124.90
-126.80
-126.90
-125.63
-123.37
-120.32
-116.54
-112.07
-106.97
-101.45
-95.80
-90.28
-84.88
-79.16
-72.36
-63.62
-52.32
-38.35
-22.21
-4.85
12.73
29.62
45.19
58.99
70.61
79.62
85.62
88.36
87.93
84.73
79.45
72.85
65.61
58.14
50.66
43.13
35.36
27.19
18.56
9.66
0.81
-7.57
-15.08
-21.47
-26.64
-30.58
-33.36
-35.15
-36.22
-36.95
-37.78
-39.10
-41.13
-43.81
-46.87
-49.85
-52.21
-53.49
-53.35
-51.64
-48.49
-44.24
-39.40
-34.53
-29.99
-25.98
-22.42
-19.11
-15.77
-12.22
-8.40
-4.37
-0.34
3.39
6.50
8.65
9.60
9.33
8.01
6.02
3.83
1.86
0.42
-0.36
-0.54
-0.25
0.31
0.93
1.36
1.40
0.87
-0.26
-1.90
-3.82
-5.77
-7.51
-8.94
-10.02
-10.78
-11.20
-11.28
-11.04
-10.61
-10.23
-10.13
-10.51
-11.34
-12.43
-13.46
-14.20
-14.55
-14.67
-14.80
-15.18
-15.94
-17.09
-18.45
-19.83
-20.95
-21.53
-21.34
-20.19
-18.04
-14.97
-11.15
-6.77
-2.03
2.88
7.70
12.17
16.06
19.24
21.70
23.54
24.93
26.01
26.89
27.64
28.29
28.88
29.40
29.78
29.85
29.44
28.44
26.84
24.80
22.54
20.32
18.34
16.73
15.52
14.70
14.14
13.69
13.18
12.43
11.35
9.93
8.30
6.61
5.02
3.59
2.26
0.91
-0.59
-2.23
-3.89
-5.35
-6.46
-7.22
-7.80
-8.53
-9.68
-11.37
-13.48
-15.71
-17.63
-18.85
-19.09
-18.26
-16.44
-13.92
-11.03
-8.11
-5.35
-2.80
-0.35
2.17
4.90
7.82
10.75
13.45
15.65
17.25
18.28
18.89
19.26
19.51
19.65
19.63
19.42
18.95
18.26
17.41
16.48
15.60
14.91
14.52
14.49
14.77
15.22
15.62
15.80
15.60
15.03
14.15
13.06
11.87
10.65
9.44
8.20
6.92
5.56
4.09
2.52
0.91
-0.70
-2.22
-3.60
-4.79
-5.77
-6.57
-7.31
-8.11
-9.16
-10.53
-12.19
-13.96
-15.53
-16.57
-16.81
-16.12
-14.51
-12.15
-9.29
-6.19
-3.08
-0.08
2.76
5.40
7.77
9.72
11.09
11.81
11.93
11.64
11.15
10.69
10.37
10.19
10.11
10.12
10.21
10.40
10.67
10.94
11.08
11.00
10.61
9.91
8.93
7.74
6.40
4.96
3.47
1.97
0.47
-1.09
-2.82
-4.90
-7.50
-10.60
-14.02
-17.42
-20.45
-22.93
-25.00
-27.01
-29.42
-32.51
-36.27
-40.34
-44.13
-46.98
-48.44
-48.40
-47.18
-45.53
-44.39
-44.58
-46.51
-49.85
-53.53
-55.96
-55.43
-50.63
-40.98
-26.80
-9.00
11.21
32.77
54.92
77.18
99.13
120.20
139.49
155.87
168.16
175.40
177.17
173.66
165.66
154.36
141.05
126.81
112.29
97.68
82.97
68.17
53.50
39.35
26.09
13.89
2.69
-7.72
-17.43
-26.28
-33.88
-39.84
-44.02
-46.63
-48.21
-49.34
-50.43
-51.55
-52.53
-53.03
-52.83
-51.95
-50.63
-49.22
-47.97
-46.93
-45.94
-44.76
-43.18
-41.16
-38.85
-36.53
-34.47
-32.87
-31.79
-31.18
-30.89
-30.71
-30.37
-29.63
-28.30
-26.23
-23.43
-20.05
-16.35
-12.65
-9.26
-6.35
-3.93
-1.89
-0.05
1.67
3.26
4.65
5.71
6.39
6.75
6.92
7.04
7.23
7.54
8.02
8.68
9.52
10.54
11.68
12.80
13.77
14.48
14.90
15.07
15.04
14.89
14.61
14.20
13.66
13.00
12.21
11.34
10.34
9.20
7.88
6.44
4.95
3.53
2.24
1.08
-0.02
-1.08
-2.11
-3.00
-3.68
-4.15
-4.57
-5.26
-6.56
-8.74
-11.82
-15.60
-19.64
-23.41
-26.41
-28.27
-28.80
-28.05
-26.20
-23.59
-20.52
-17.30
-14.12
-11.09
-8.29
-5.81
-3.74
-2.14
-0.97
-0.11
0.63
1.46
2.44
3.53
4.60
5.49
6.14
6.58
6.90
7.19
7.48
7.73
7.87
7.86
7.73
7.58
7.49
7.44
7.41
7.34
7.19
6.96
6.69
6.35
5.89
5.26
4.46
3.56
2.68
1.84
0.98
-0.05
-1.42
-3.16
-5.15
-7.19
-9.11
-10.83
-12.42
-14.00
-15.60
-17.19
-18.66
-19.87
-20.73
-21.18
-21.15
-20.53
-19.23
-17.21
-14.52
-11.34
-7.90
-4.38
-0.88
2.57
5.92
9.11
11.97
14.34
16.06
17.11
17.56
17.56
17.33
17.05
16.87
16.85
17.03
17.37
17.76
18.05
18.07
17.70
16.87
15.67
14.24
12.73
11.23
9.74
8.21
6.61
4.98
3.37
1.87
0.51
-0.72
-1.84
-2.85
-3.79
-4.68
-5.63
-6.73
-7.99
-9.31
-10.45
-11.10
-11.07
-10.41
-9.38
-8.44
-8.05
-8.55
-10.00
-12.19
-14.63
-16.68
-17.74
-17.36
-15.46
-12.30
-8.41
-4.40
-0.74
2.36
4.96
7.33
9.77
12.52
15.60
18.82
21.80
24.10
25.38
25.49
24.55
22.91
20.99
19.13
17.53
16.24
15.22
14.42
13.81
13.37
13.10
12.93
12.82
12.69
12.50
12.24
11.92
11.56
11.17
10.73
10.17
9.43
8.46
7.27
5.98
4.71
3.53
2.46
1.43
0.29
-1.05
-2.67
-4.53
-6.60
-8.77
-10.95
-13.05
-15.01
-16.80
-18.39
-19.69
-20.56
-20.80
-20.23
-18.79
-16.60
-13.90
-11.01
-8.16
-5.49
-3.03
-0.83
1.02
2.42
3.23
3.42
3.11
2.52
1.87
1.40
1.21
1.34
1.77
2.40
3.14
3.86
4.46
4.88
5.11
5.15
5.05
4.83
4.48
3.99
3.31
2.41
1.33
0.14
-1.07
-2.20
-3.23
-4.16
-5.05
-5.96
-6.92
-7.94
-8.98
-10.04
-11.12
-12.20
-13.30
-14.44
-15.66
-17.00
-18.48
-20.06
-21.59
-22.79
-23.36
-23.05
-21.72
-19.45
-16.47
-13.10
-9.59
-6.12
-2.75
0.43
3.39
6.01
8.18
9.84
11.02
11.83
12.40
12.82
13.11
13.24
13.13
12.73
12.02
11.06
9.96
8.86
7.94
7.30
7.03
7.07
7.31
7.60
7.78
7.75
7.53
7.16
6.70
6.13
5.41
4.44
3.21
1.79
0.39
-0.76
-1.48
-1.73
-1.64
-1.51
-1.66
-2.36
-3.68
-5.45
-7.32
-8.77
-9.39
-8.91
-7.37
-5.01
-2.17
0.90
4.16
7.82
12.17
17.34
23.15
29.03
34.30
38.39
41.26
43.45
45.89
49.56
54.96
61.92
69.66
77.14
83.58
88.81
93.39
98.50
105.80
117.15
134.18
157.63
186.64
218.39
248.53
272.51
287.20
292.09
289.24
282.11
273.70
265.19
255.75
243.40
226.45
204.49
178.31
149.26
118.26
85.36
49.95
11.34
-30.78
-76.26
-124.49
-174.46
-224.36
-271.31
-311.48
-340.89
-356.70
-358.31
-347.73
-328.77
-305.66
-281.68
-258.62
-237.03
-216.98
-198.68
-182.58
-168.91
-157.35
-146.95
-136.50
-125.22
-113.02
-100.55
-88.88
-78.90
-70.89
-64.48
-58.80
-52.92
-46.29
-38.88
-31.23
-24.13
-18.30
-14.04
-11.17
-9.08
-7.06
-4.59
-1.60
1.54
4.19
5.79
6.15
5.50
4.36
3.25
2.50
2.09
1.83
1.46
0.83
-0.06
-1.16
-2.37
-3.65
-4.98
-6.37
-7.85
-9.44
-11.16
-12.98
-14.74
-16.17
-16.95
-16.74
-15.37
-12.91
-9.63
-5.88
-1.99
1.78
5.27
8.38
10.95
12.84
13.95
14.32
14.12
13.64
13.14
12.81
12.74
12.90
13.25
13.71
14.23
14.74
15.21
15.58
15.82
15.86
15.64
15.08
14.14
12.87
11.39
9.87
8.46
7.20
6.03
4.87
3.64
2.39
1.22
0.25
-0.53
-1.22
-2.01
-3.05
-4.35
-5.76
-7.06
-8.07
-8.69
-8.98
-9.09
-9.15
-9.28
-9.57
-10.06
-10.83
-11.85
-12.98
-13.93
-14.35
-13.92
-12.57
-10.50
-8.13
-5.89
-4.07
-2.66
-1.44
-0.01
1.90
4.45
7.60
11.07
14.57
17.75
20.33
22.22
23.46
24.37
25.41
27.10
29.87
33.82
38.62
43.48
47.29
49.02
48.12
44.85
40.32
36.16
34.04
34.97
39.03
45.32
52.22
57.97
61.02
60.44
55.83
47.32
35.40
20.82
4.63
-11.88
-27.33
-40.54
-50.80
-58.05
-62.77
-65.67
-67.34
-68.04
-67.64
-65.92
-62.76
-58.32
-53.00
-47.22
-41.27
-35.29
-29.43
-24.01
-19.52
-16.57
-15.62
-16.76
-19.67
-23.75
-28.32
-32.92
-37.35
-41.62
-45.87
-50.16
-54.42
-58.35
-61.52
-63.47
-63.82
-62.42
-59.14
-53.67
-45.29
-32.79
-14.86
9.26
39.08
72.59
106.48
136.95
160.80
176.13
182.64
181.27
173.55
161.08
145.20
127.07
107.78
88.52
70.40
54.24
40.33
28.42
17.92
8.22
-1.05
-9.96
-18.35
-26.03
-32.89
-38.92
-44.16
-48.59
-52.14
-54.64
-55.97
-56.05
-54.95
-52.87
-50.10
-46.96
-43.73
-40.61
-37.71
-35.06
-32.70
-30.64
-28.89
-27.43
-26.16
-24.92
-23.55
-21.89
-19.88
-17.50
-14.84
-12.05
-9.33
-6.87
-4.82
-3.21
-1.99
-1.03
-0.21
0.57
1.29
1.88
2.21
2.19
1.78
1.05
0.16
-0.70
-1.40
-1.94
-2.43
-3.05
-3.91
-5.05
-6.31
-7.50
-8.43
-8.99
-9.19
-9.16
-9.08
-9.20
-9.69
-10.64
-11.90
-13.07
-13.58
-12.91
-10.78
-7.36
-3.20
1.03
4.69
7.52
9.53
10.99
12.12
13.08
13.89
14.55
15.10
15.59
16.05
16.37
16.43
16.06
15.24
14.07
12.77
11.57
10.65
10.09
9.91
10.01
10.29
10.58
10.72
10.59
10.15
9.49
8.74
8.08
7.60
7.25
6.88
6.34
5.53
4.39
2.99
1.43
-0.19
-1.79
-3.35
-4.86
-6.41
-8.12
-10.09
-12.37
-14.94
-17.61
-20.08
-21.95
-22.83
-22.43
-20.60
-17.43
-13.20
-8.31
-3.22
1.64
5.90
9.34
11.87
13.47
14.27
14.42
14.14
13.69
13.26
13.01
12.96
13.06
13.17
13.16
12.91
12.39
11.61
10.71
9.83
9.10
8.64
8.41
8.29
8.07
7.53
6.58
5.24
3.69
2.11
0.60
-0.84
-2.27
-3.72
-5.17
-6.54
-7.71
-8.70
-9.54
-10.40
-11.39
-12.57
-13.91
-15.31
-16.67
-17.81
-18.51
-18.55
-17.75
-16.03
-13.48
-10.32
-6.84
-3.33
0.02
3.06
5.74
7.99
9.74
10.91
11.50
11.64
11.51
11.38
11.41
11.69
12.15
12.66
13.07
13.33
13.45
13.49
13.48
13.37
13.02
12.34
11.27
9.89
8.30
6.60
4.82
2.88
0.69
-1.77
-4.47
-7.22
-9.85
-12.21
-14.29
-16.12
-17.75
-19.22
-20.52
-21.65
-22.64
-23.60
-24.58
-25.57
-26.37
-26.60
-25.84
-23.74
-20.22
-15.50
-10.08
-4.57
0.47
4.68
7.97
10.40
12.14
13.30
14.01
14.35
14.43
14.39
14.35
14.33
14.29
14.08
13.57
12.68
11.46
10.09
8.78
7.72
7.05
6.72
6.64
6.63
6.53
6.23
5.76
5.17
4.57
4.01
3.46
2.84
2.05
1.06
-0.11
-1.39
-2.72
-4.07
-5.48
-6.99
-8.60
-10.30
-12.07
-13.89
-15.71
-17.36
-18.51
-18.72
-17.55
-14.83
-10.73
-5.78
-0.63
4.13
8.19
11.52
14.23
16.42
18.08
19.14
19.48
19.09
18.09
16.72
15.26
13.92
12.84
11.99
11.27
10.60
9.87
9.08
8.26
7.45
6.65
5.80
4.80
3.62
2.33
1.09
0.08
-0.60
-0.95
-1.11
-1.23
-1.46
-1.86
-2.48
-3.30
-4.28
-5.36
-6.41
-7.32
-8.00
-8.45
-8.76
-9.08
-9.56
-10.26
-11.17
-12.16
-13.04
-13.53
-13.37
-12.28
-10.15
-7.01
-3.13
1.09
5.21
8.87
11.89
14.23
15.94
17.12
17.83
18.10
18.00
17.60
17.05
16.46
15.90
15.37
14.82
14.25
13.70
13.25
12.93
12.66
12.22
11.36
9.95
8.06
6.03
4.20
2.81
1.84
1.03
0.09
-1.14
-2.61
-4.05
-5.22
-5.99
-6.40
-6.62
-6.80
-7.06
-7.39
-7.81
-8.33
-8.97
-9.69
-10.37
-10.72
-10.44
-9.18
-6.72
-3.04
1.71
7.13
12.76
18.10
22.79
26.58
29.43
31.32
32.32
32.43
31.69
30.18
28.11
25.78
23.52
21.57
19.97
18.59
17.19
15.60
13.84
12.07
10.52
9.31
8.40
7.60
6.66
5.48
4.09
2.73
1.55
0.65
-0.07
-0.85
-1.90
-3.35
-5.18
-7.25
-9.37
-11.42
-13.31
-15.07
-16.73
-18.28
-19.64
-20.61
-20.97
-20.45
-18.93
-16.45
-13.23
-9.64
-6.09
-2.93
-0.39
1.41
2.46
2.81
2.52
1.74
0.63
-0.58
-1.62
-2.34
-2.72
-2.93
-3.24
-3.91
-5.04
-6.54
-8.10
-9.46
-10.44
-11.11
-11.68
-12.33
-13.16
-14.09
-14.94
-15.59
-16.00
-16.29
-16.62
-17.15
-17.94
-18.99
-20.21
-21.50
-22.77
-23.85
-24.59
-24.77
-24.27
-23.04
-21.21
-19.03
-16.78
-14.78
-13.19
-12.07
-11.32
-10.78
-10.24
-9.55
-8.67
-7.63
-6.57
-5.69
-5.14
-4.96
-5.11
-5.43
-5.72
-5.84
-5.71
-5.36
-4.93
-4.57
-4.44
-4.64
-5.13
-5.79
-6.46
-6.96
-7.15
-6.97
-6.40
-5.49
-4.38
-3.24
-2.27
-1.64
-1.44
-1.53
-1.61
-1.15
0.37
3.28
7.57
12.86
18.49
23.73
28.00
30.96
32.56
32.92
32.22
30.62
28.29
25.44
22.36
19.37
16.72
14.54
12.81
11.37
10.10
8.91
7.82
6.91
6.18
5.58
4.95
4.12
2.91
1.32
-0.60
-2.68
-4.75
-6.72
-8.61
-10.47
-12.30
-13.98
-15.27
-15.85
-15.45
-13.96
-11.48
-8.25
-4.60
-0.87
2.64
5.72
8.17
9.86
10.75
10.81
10.14
8.94
7.51
6.15
5.14
4.63
4.58
4.84
5.23
5.60
5.86
6.00
5.99
5.76
5.21
4.30
3.05
1.58
0.07
-1.37
-2.68
-3.94
-5.25
-6.73
-8.46
-10.42
-12.49
-14.40
-15.77
-16.19
-15.34
-13.10
-9.67
-5.53
-1.23
2.70
5.99
8.64
10.83
12.80
14.62
16.20
17.23
17.41
16.52
14.57
11.77
8.52
5.20
2.08
-0.69
-3.17
-5.50
-7.78
-10.07
-12.35
-14.54
-16.57
-18.49
-20.34
-22.16
-23.85
-25.21
-25.98
-26.09
-25.74
-25.47
-26.02
-28.07
-31.93
-37.45
-44.14
-51.29
-58.31
-64.79
-70.43
-74.95
-78.05
-79.59
-79.96
-80.11
-81.13
-83.45
-86.10
-86.80
-82.81
-72.24
-55.03
-33.04
-9.20
13.72
33.90
50.57
63.45
72.16
76.21
75.43
70.67
63.97
58.04
55.20
56.45
61.18
67.56
73.45
77.34
78.93
79.15
79.70
82.30
87.97
96.69
107.38
118.31
127.66
134.06
136.85
136.11
132.35
126.17
118.00
108.12
96.86
84.79
72.86
62.05
53.10
46.07
40.41
35.24
29.81
23.94
18.01
12.66
8.23
4.46
0.58
-4.31
-10.60
-17.85
-24.85
-30.14
-32.66
-32.29
-29.74
-26.25
-22.95
-20.49
-19.06
-18.59
-19.24
-21.34
-25.37
-31.67
-40.22
-50.91
-64.01
-80.70
-102.86
-131.85
-166.91
-203.93
-235.84
-254.67
-254.47
-233.67
-195.49
-145.97
-90.98
-33.71
25.62
87.93
152.44
214.90
268.13
304.61
319.82
314.33
293.52
265.24
236.77
212.57
193.56
178.20
164.11
149.55
133.95
117.77
102.02
87.84
76.25
67.93
62.88
60.16
57.99
54.41
48.15
39.41
29.86
21.79
16.86
15.14
14.90
13.36
7.96
-2.54
-17.67
-35.50
-53.45
-69.00
-80.18
-85.75
-85.42
-79.80
-70.27
-58.49
-45.64
-31.70
-15.40
4.91
29.72
56.91
81.45
96.58
96.27
77.86
43.49
-0.41
-45.48
-84.42
-113.35
-132.49
-145.05
-154.94
-164.87
-175.42
-185.48
-193.47
-198.35
-199.83
-197.73
-191.21
-178.55
-157.87
-128.53
-92.34
-53.63
-18.22
8.37
22.64
24.03
14.62
-1.91
-21.70
-41.74
-60.51
-77.82
-94.45
-111.45
-129.42
-148.17
-166.56
-182.95
-195.63
-203.58
-206.72
-205.95
-202.52
-197.55
-191.53
-184.34
-175.63
-165.21
-153.35
-140.62
-127.55
-114.34
-100.87
-87.07
-73.16
-59.81
-47.87
-37.80
-29.46
-21.99
-14.33
-5.68
4.16
14.90
26.06
37.33
48.62
59.88
70.70
80.29
87.58
91.67
92.12
88.99
82.87
74.72
65.79
57.60
51.65
49.00
49.74
52.70
55.60
55.88
51.84
43.49
33.16
25.04
24.26
35.27
60.46
99.23
147.99
201.02
252.12
296.35
331.02
355.70
371.07
378.09
377.52
370.17
357.28
340.37
321.20
301.04
280.21
257.55
231.29
199.93
162.81
120.10
71.98
19.54
-35.04
-88.52
-138.41
-183.29
-223.01
-258.51
-291.19
-323.12
-354.20
-381.84
-401.58
-411.38
-411.83
-405.51
-395.31
-383.21
-371.70
-360.98
-349.51
-334.31
-315.28
-292.94
-266.55
-233.21
-189.84
-138.15
-81.76
-24.95
30.07
80.04
123.17
160.55
195.44
246.41
314.77
385.08
425.43
430.49
403.40
351.48
282.46
206.81
135.88
76.65
33.71
9.36
4.27
13.86
27.04
34.28
32.48
25.27
17.53
14.41
19.17
32.47
51.06
63.83
61.34
40.28
3.10
-46.93
-106.85
-174.53
-248.20
-295.46
-295.03
-245.17
-163.91
-73.78
10.02
81.68
141.46
181.27
209.69
228.33
237.22
237.76
233.08
225.30
213.60
203.73
196.31
192.92
189.48
182.56
171.51
158.31
145.52
134.56
125.71
117.52
110.54
102.03
90.21
75.20
58.96
43.80
31.09
21.17
12.85
6.11
-0.80
-9.03
-18.61
-28.65
-38.24
-47.09
-55.59
-65.02
-75.84
-88.82
-104.07
-120.94
-138.29
-155.00
-170.43
-184.49
-198.02
-212.16
-228.57
-248.79
-273.56
-302.07
-331.83
-359.55
-382.53
-400.01
-413.68
-427.05
-444.03
-467.41
-497.51
-532.07
-567.34
-599.08
-623.05
-635.50
-633.25
-614.05
-577.32
-524.10
-456.71
-378.97
-295.36
-210.07
-126.51
-47.33
25.37
89.48
143.36
186.03
216.54
234.05
238.43
230.31
211.14
185.42
156.06
123.20
89.24
57.44
29.82
7.58
-8.81
-19.33
-24.45
-25.16
-22.31
-16.21
-7.52
2.87
14.17
25.67
36.79
47.10
56.04
63.39
69.45
74.34
78.00
80.39
81.43
81.03
79.21
75.95
71.50
66.49
61.42
56.60
52.18
48.21
44.63
41.44
38.68
36.59
35.61
36.10
38.20
41.90
47.08
53.61
61.47
70.89
82.31
96.31
113.29
133.34
156.10
180.94
207.02
233.62
260.24
286.77
313.47
341.01
370.37
402.43
437.42
474.31
510.55
542.61
566.96
581.22
584.64
577.78
561.48
535.94
500.58
454.95
400.10
339.39
278.14
222.01
175.15
139.03
112.50
92.79
76.24
58.56
34.60
-1.04
-52.36
-119.50
-196.99
-274.34
-339.00
-380.71
-394.97
-384.03
-354.89
-316.15
-275.06
-236.47
-203.20
-176.90
-158.40
-147.22
-141.03
-135.81
-127.15
-112.01
-90.23
-64.71
-40.28
-21.62
-10.99
-7.12
-5.68
-1.18
10.67
31.15
58.15
87.33
113.86
134.05
145.98
149.20
144.33
132.62
115.93
96.64
77.42
60.39
46.57
35.52
25.78
15.82
4.98
-6.04
-15.45
-20.95
-20.68
-13.83
-1.05
15.55
32.72
46.72
54.29
53.71
45.36
31.60
15.78
1.03
-10.84
-19.73
-26.70
-33.01
-39.16
-44.43
-47.36
-46.42
-40.73
-30.55
-17.09
-2.30
11.63
22.72
29.58
31.77
29.76
24.61
17.52
9.39
0.87
-7.36
-14.21
-18.09
-17.52
-12.06
-3.10
6.22
12.16
11.92
5.05
-6.31
-18.31
-27.06
-30.08
-27.11
-19.97
-11.62
-5.10
-2.70
-5.42
-12.95
-23.76
-35.52
-45.62
-51.76
-52.52
-47.83
-38.85
-27.74
-17.09
-9.14
-5.32
-6.03
-10.97
-19.27
-29.79
-41.26
-52.33
-61.65
-68.18
-71.41
-71.53
-69.36
-65.95
-62.10
-58.10
-53.53
-47.81
-40.69
-32.65
-24.84
-18.53
-14.33
-11.70
-9.16
-5.07
1.28
9.02
15.93
19.54
18.53
13.52
6.84
1.46
-0.07
3.48
12.06
24.68
39.84
55.64
69.88
80.27
84.87
82.74
74.29
61.21
45.92
30.80
17.74
7.95
1.70
-1.92
-5.25
-11.43
-23.17
-40.80
-61.28
-78.66
-86.53
-81.18
-63.75
-40.09
-18.11
-4.33
-1.41
-7.87
-19.73
-32.91
-44.86
-54.90
-63.36
-70.44
-75.67
-78.11
-76.93
-72.21
-65.14
-57.80
-52.28
-49.79
-50.01
-51.16
-50.70
-46.64
-38.71
-28.76
-19.81
-14.59
-14.14
-17.32
-21.65
-24.68
-25.13
-23.05
-19.18
-14.04
-7.69
-0.30
6.72
10.07
5.26
-11.32
-39.94
-75.98
-110.51
-133.18
-136.18
-117.44
-81.68
-38.72
0.18
26.28
35.72
29.74
12.73
-10.32
-35.85
-62.27
-89.04
-115.62
-140.93
-163.71
-183.58
-201.38
-218.83
-237.11
-255.39
-270.44
-277.54
-272.50
-253.65
-222.68
-183.97
-142.64
-102.44
-64.52
-27.52
10.94
52.09
94.38
133.34
162.79
177.30
174.44
155.85
126.79
94.48
66.03
46.94
40.55
48.20
69.59
102.91
144.80
190.32
233.44
268.17
289.86
296.42
288.72
270.30
246.23
221.76
201.07
186.57
178.97
177.80
182.00
190.25
201.15
213.23
225.16
236.06
245.81
254.84
263.63
272.03
278.70
281.32
277.29
265.04
245.03
220.10
194.74
173.60
159.70
153.30
151.87
151.04
146.09
133.29
110.80
78.76
39.12
-4.61
-47.97
-86.12
-114.96
-132.16
-137.89
-134.80
-127.14
-119.53
-115.61
-117.30
-124.68
-136.57
-151.54
-168.67
-187.82
-209.06
-231.81
-254.02
-272.18
-282.18
-281.01
-268.15
-246.08
-219.47
-193.48
-171.98
-156.75
-147.78
-144.03
-144.22
-146.98
-150.60
-152.77
-151.00
-143.63
-130.93
-115.67
-102.42
-95.91
-98.65
-109.50
-123.52
-133.58
-132.73
-116.60
-84.75
-40.63
9.63
59.06
101.65
133.69
154.33
165.18
169.28
169.69
168.21
164.91
158.48
147.47
131.64
112.82
94.56
80.90
74.62
76.12
83.28
92.47
99.89
102.79
100.07
92.04
79.99
65.68
50.90
37.33
26.35
18.75
14.60
13.33
13.89
15.02
15.49
13.99
9.28
0.51
-12.26
-27.50
-42.28
-53.01
-56.73
-52.38
-41.32
-26.77
-12.54
-1.49
5.39
8.88
10.51
11.47
11.94
11.17
8.35
3.25
-3.40
-10.38
-16.71
-22.12
-27.00
-31.84
-36.66
-40.59
-42.27
-40.53
-34.94
-26.03
-15.00
-3.13
8.53
19.18
27.93
33.48
34.23
28.85
17.16
0.77
-16.89
-31.49
-39.25
-38.30
-29.51
-15.95
-1.50
10.96
20.57
28.46
36.61
46.37
57.50
68.12
75.62
77.72
73.27
62.44
46.29
26.17
3.34
-21.11
-45.93
-69.42
-89.46
-103.79
-110.74
-109.87
-102.39
-91.13
-79.75
-71.56
-68.37
-70.00
-74.44
-78.88
-80.73
-78.67
-72.92
-64.88
-56.38
-48.96
-43.35
-39.37
-36.08
-32.26
-26.95
-19.87
-11.59
-3.26
4.04
9.80
14.22
17.66
20.05
20.48
17.67
11.02
1.55
-7.88
-13.80
-13.86
-8.25
0.30
7.93
11.63
10.52
5.78
-0.39
-6.05
-10.17
-12.52
-13.23
-12.39
-10.08
-6.41
-1.52
4.58
12.09
21.10
31.17
40.97
48.66
52.75
52.91
50.07
45.99
42.13
39.03
36.24
32.84
28.16
22.19
15.41
8.52
2.29
-2.52
-5.20
-5.37
-3.30
-0.05
2.90
4.36
4.06
2.74
1.56
1.32
1.93
2.52
1.87
-0.82
-5.62
-11.98
-19.00
-25.75
-31.48
-35.65
-38.02
-38.54
-37.27
-34.26
-29.45
-22.78
-14.71
-6.43
0.22
3.45
2.40
-2.20
-8.29
-13.47
-16.19
-16.43
-15.51
-15.21
-16.71
-19.94
-23.85
-27.09
-28.84
-29.02
-28.22
-27.00
-25.57
-23.62
-20.71
-16.52
-11.19
-5.22
0.67
5.79
9.67
11.94
12.28
10.31
5.66
-1.74
-11.42
-22.05
-31.50
-37.32
-37.42
-31.02
-19.03
-3.64
12.58
27.77
41.36
53.56
64.34
72.54
75.75
71.29
57.56
35.00
6.20
-24.93
-54.14
-77.39
-91.09
-92.24
-79.01
-51.53
-12.62
32.31
76.37
112.70
136.17
144.31
137.41
118.05
90.30
58.92
28.61
3.26
-14.88
-25.62
-30.74
-33.27
-36.40
-42.41
-52.15
-64.75
-77.71
-87.22
-88.72
-78.11
-53.42
-16.49
26.51
66.31
93.64
102.70
93.49
71.64
45.47
22.26
5.47
-5.50
-13.25
-19.67
-24.59
-26.29
-23.45
-16.95
-9.97
-6.53
-9.32
-18.41
-31.32
-44.44
-54.77
-60.81
-62.57
-60.88
-56.77
-51.14
-44.91
-38.91
-33.67
-28.94
-23.48
-15.35
-2.58
15.88
39.51
65.82
90.85
110.21
120.53
120.68
112.28
99.08
85.44
74.51
67.07
61.33
54.17
42.92
26.77
7.26
-12.60
-29.53
-41.42
-47.70
-49.03
-46.43
-40.83
-32.93
-23.67
-14.43
-6.99
-2.87
-2.58
-5.34
-9.50
-13.54
-16.92
-20.38
-25.55
-33.95
-46.11
-61.02
-76.41
-89.37
-97.27
-98.32
-91.57
-76.71
-53.91
-23.95
11.45
49.43
86.10
117.24
139.24
149.84
148.24
134.97
111.55
80.25
43.93
5.79
-31.14
-64.42
-92.67
-115.43
-132.94
-145.75
-154.40
-159.34
-160.48
-157.08
-147.56
-129.81
-102.00
-63.15
-13.21
47.38
118.10
197.97
284.36
371.72
451.68
515.11
555.40
571.11
566.60
549.82
528.74
508.16
488.74
468.37
444.58
416.64
385.84
354.43
323.95
294.25
263.84
230.91
194.66
155.81
116.67
79.92
47.50
19.80
-4.47
-27.61
-51.88
-78.54
-107.63
-138.24
-169.20
-199.39
-227.67
-252.55
-272.13
-284.78
-290.10
-289.65
-286.72
-284.91
-286.34
-290.58
-294.84
-295.49
-289.80
-277.13
-258.70
-236.56
-212.57
-187.99
-163.85
-141.47
-122.60
-108.90
-101.20
-98.71
-99.09
-99.23
-96.50
-89.89
-80.60
-71.66
-66.95
-69.43
-79.70
-95.38
-111.70
-123.56
-127.67
-123.97
-115.45
-106.29
-99.60
-95.92
-93.50
-89.72
-83.00
-73.68
-63.80
-55.85
-51.61
-51.73
-55.94
-63.51
-73.38
-84.02
-93.35
-99.15
-99.88
-95.48
-87.47
-78.34
-70.50
-65.22
-62.43
-61.03
-59.65
-57.45
-54.38
-51.18
-49.04
-49.01
-51.29
-54.88
-57.72
-57.66
-53.82
-47.41
-41.52
-39.61
-43.67
-53.30
-66.02
-78.93
-90.26
-99.94
-108.87
-117.68
-125.99
-132.63
-136.89
-139.52
-142.74
-148.95
-159.15
-171.82
-183.18
-188.52
-183.79
-166.77
-137.33
-97.25
-49.76
0.55
47.90
85.96
108.97
113.61
100.54
75.08
46.13
23.62
15.31
24.20
47.55
77.95
105.97
123.31
125.38
112.14
87.29
56.41
25.07
-2.18
-21.70
-30.37
-25.84
-7.57
21.92
56.75
89.04
111.55
120.34
115.91
102.20
84.27
65.92
48.67
32.45
16.88
2.57
-8.77
-14.97
-14.56
-7.45
5.06
20.84
37.55
53.13
65.96
74.76
78.64
77.61
73.06
67.81
65.24
67.78
75.38
85.30
93.21
95.35
90.40
79.91
67.23
55.61
47.01
42.13
41.29
45.16
54.56
69.24
86.84
103.02
113.00
113.91
106.24
93.81
81.94
75.23
75.73
82.55
92.91
103.68
112.55
118.21
119.89
116.71
107.62
92.07
70.97
47.14
24.89
8.51
0.65
1.36
8.30
18.05
27.60
35.37
41.26
45.92
49.76
52.47
53.07
50.42
43.83
33.52
20.71
7.24
-5.01
-14.85
-22.13
-27.75
-33.03
-38.83
-44.99
-50.43
-54.03
-55.54
-56.08
-57.70
-62.23
-70.03
-79.55
-87.83
-91.97
-90.55
-84.21
-75.17
-66.18
-59.35
-55.57
-54.73
-56.19
-58.98
-61.75
-62.57
-59.32
-50.55
-36.43
-19.14
-2.36
10.23
16.42
16.13
11.08
3.74
-3.70
-9.79
-13.81
-15.49
-14.90
-12.53
-9.36
-6.67
-5.69
-6.95
-10.24
-14.89
-20.30
-26.33
-33.32
-41.76
-51.93
-63.55
-75.67
-86.60
-93.84
-94.19
-84.28
-61.43
-24.78
24.10
81.14
140.79
197.45
246.76
286.29
315.10
332.90
339.08
332.75
313.39
282.01
241.64
197.05
153.59
115.66
85.77
64.34
50.18
41.19
34.95
28.97
21.04
9.65
-5.40
-22.55
-38.62
-49.80
-53.35
-49.02
-39.53
-29.65
-24.39
-26.96
-37.43
-52.74
-67.95
-78.25
-80.77
-75.58
-65.41
-54.20
-45.54
-41.32
-41.59
-45.10
-50.33
-56.21
-62.17
-67.75
-72.22
-74.68
-74.48
-71.66
-67.00
-61.41
-55.40
-48.78
-41.23
-32.95
-25.15
-19.80
-18.63
-22.14
-29.13
-37.09
-43.27
-45.65
-43.61
-37.83
-29.92
-21.80
-15.21
-11.24
-10.05
-10.88
-12.48
-13.52
-13.14
-11.07
-7.60
-3.24
1.48
5.97
9.60
11.73
11.87
9.87
6.00
0.86
-4.82
-10.11
-13.97
-15.48
-14.20
-10.64
-6.27
-2.95
-2.11
-4.09
-8.00
-12.32
-15.63
-16.91
-15.49
-10.70
-2.04
10.30
24.88
38.98
49.52
54.39
53.32
47.79
39.86
30.84
20.83
9.20
-4.32
-18.83
-32.48
-43.28
-50.17
-53.29
-53.35
-50.73
-44.96
-35.20
-21.17
-4.15
13.04
26.97
35.09
36.82
33.50
27.49
20.81
14.52
8.66
2.96
-2.67
-8.07
-13.00
-17.40
-21.11
-23.50
-23.20
-18.62
-8.89
5.25
21.26
35.76
45.89
50.73
51.61
51.30
52.50
56.58
63.09
70.42
76.76
80.99
82.87
82.59
80.44
76.64
71.67
66.53
62.47
60.26
59.20
57.05
50.90
38.84
21.22
0.78
-18.75
-34.59
-46.08
-54.39
-60.99
-66.00
-67.84
-64.34
-54.60
-40.13
-24.42
-11.11
-2.05
3.61
8.49
15.11
24.21
34.35
42.75
46.86
45.56
39.46
30.33
20.10
10.02
0.25
-10.07
-22.38
-37.84
-56.70
-77.84
-98.86
-116.82
-129.22
-134.80
-133.85
-127.99
-119.71
-111.88
-107.34
-108.31
-115.69
-128.11
-141.85
-151.74
-153.17
-144.13
-126.21
-103.94
-82.68
-66.16
-55.14
-47.60
-40.38
-30.97
-18.69
-4.66
9.06
20.57
28.78
33.49
35.13
34.46
32.39
29.87
27.86
27.20
28.65
32.66
39.26
47.88
57.20
65.53
71.47
74.52
75.30
74.98
74.44
73.54
71.14
65.93
57.49
46.86
36.20
27.89
23.56
23.65
27.69
34.84
44.17
54.57
64.57
72.40
76.40
75.76
70.86
63.10
54.22
45.77
38.87
34.22
32.41
33.83
38.37
45.12
52.50
58.62
62.02
61.91
58.12
50.91
40.81
28.89
16.90
7.08
1.34
0.32
2.78
5.92
6.51
2.14
-7.91
-22.73
-40.41
-58.76
-75.84
-89.85
-99.09
-101.89
-97.06
-84.47
-65.54
-43.25
-21.62
-4.52
5.57
8.39
5.88
1.07
-3.45
-6.70
-9.44
-13.14
-18.49
-24.49
-28.83
-29.17
-24.66
-16.65
-8.11
-2.20
-0.78
-3.76
-9.61
-16.51
-23.60
-31.19
-40.21
-51.18
-63.53
-75.77
-86.14
-93.49
-97.45
-98.23
-96.04
-90.86
-82.51
-71.23
-57.96
-44.26
-31.82
-21.85
-14.81
-10.63
-9.08
-9.90
-12.66
-16.61
-20.46
-22.74
-22.47
-19.74
-15.79
-12.45
-11.29
-12.70
-15.71
-18.45
-19.08
-16.72
-11.81
-5.84
-0.63
2.45
2.90
1.20
-1.53
-3.99
-5.35
-5.56
-5.41
-6.02
-8.06
-10.97
-12.72
-10.27
-0.69
17.35
42.44
70.23
94.38
108.56
108.84
95.15
71.51
44.38
20.18
2.87
-7.02
-11.60
-13.67
-15.01
-15.78
-15.44
-14.22
-13.73
-16.40
-23.69
-34.62
-45.61
-51.82
-49.49
-38.00
-20.31
-1.84
11.92
17.61
15.07
6.92
-3.01
-11.38
-16.55
-18.57
-18.44
-17.06
-14.63
-10.77
-5.10
1.99
9.31
15.28
18.88
20.19
20.29
20.52
21.55
22.94
23.45
21.92
18.11
12.90
7.83
4.20
2.32
1.51
0.66
-1.01
-3.57
-6.57
-9.58
-12.61
-16.04
-20.32
-25.63
-31.90
-39.10
-47.35
-56.85
-67.41
-78.10
-87.46
-94.18
-98.01
-100.08
-102.46
-107.05
-114.48
-123.81
-132.95
-139.66
-142.36
-140.10
-132.19
-117.71
-95.59
-65.25
-27.62
14.37
56.06
92.17
118.30
132.05
133.30
123.82
106.36
83.77
58.58
32.90
8.81
-11.07
-23.28
-24.49
-13.29
7.87
32.19
50.57
55.82
46.93
30.60
18.63
21.86
44.30
80.41
117.57
142.13
145.77
128.53
97.27
61.27
27.97
1.05
-18.64
-30.91
-34.81
-28.93
-12.74
12.01
41.10
68.82
89.78
100.34
99.41
88.41
70.64
50.13
30.59
14.46
2.31
-6.83
-14.58
-21.89
-28.42
-32.67
-33.02
-28.89
-20.97
-10.64
1.29
15.24
32.39
53.39
77.11
100.34
118.76
128.79
129.22
121.66
109.64
96.96
86.16
78.06
71.99
66.67
61.01
54.64
47.92
41.68
36.86
34.23
34.20
36.80
41.72
48.29
55.37
61.34
64.19
61.94
53.33
38.80
20.89
3.97
-7.09
-8.82
-0.72
14.36
31.12
43.82
48.27
43.07
29.60
11.06
-8.94
-27.33
-42.08
-52.15
-57.59
-59.61
-60.70
-64.12
-73.01
-88.97
-111.17
-136.35
-159.79
-177.02
-185.46
-185.18
-178.38
-168.19
-157.18
-146.42
-135.63
-123.89
-110.65
-96.24
-81.80
-68.41
-56.30
-44.61
-32.00
-17.84
-3.24
8.98
15.58
14.82
7.81
-1.59
-8.50
-9.39
-3.70
6.21
16.62
24.62
29.35
31.87
33.84
36.07
37.90
37.82
34.69
28.61
21.00
13.81
8.68
6.33
6.74
9.64
15.08
23.39
34.53
47.35
59.37
67.38
68.82
63.16
52.37
40.18
30.49
25.57
25.30
27.37
28.73
27.10
22.05
14.89
7.71
2.24
-1.05
-2.86
-4.39
-6.49
-9.15
-11.56
-12.73
-12.22
-10.31
-7.75
-5.30
-3.39
-2.21
-2.11
-3.87
-8.23
-15.05
-22.76
-28.90
-31.30
-29.28
-24.23
-18.65
-14.60
-12.25
-9.81
-4.72
4.54
17.27
30.59
41.09
46.62
47.48
45.94
44.73
45.47
48.04
51.29
54.17
56.32
58.01
59.31
59.31
56.07
47.53
32.76
12.79
-9.66
-31.16
-48.90
-61.61
-69.60
-73.99
-75.97
-76.38
-75.72
-74.46
-73.39
-73.54
-75.86
-80.63
-87.25
-94.30
-100.13
-103.47
-103.94
-102.08
-99.05
-96.34
-95.40
-97.24
-101.88
-108.14
-113.64
-115.74
-113.18
-107.31
-102.58
-105.60
-123.05
-159.04
-213.05
-279.29
-348.01
-408.14
-450.34
-469.31
-464.45
-438.83
-397.18
-344.10
-282.99
-216.30
-146.06
-74.53
-3.82
64.93
132.24
200.32
272.38
351.44
438.81
532.96
628.78
717.78
789.93
836.53
853.13
841.33
808.21
763.63
716.66
672.88
633.81
598.44
565.42
534.56
506.74
482.71
461.82
441.68
419.10
391.65
358.74
321.87
283.95
247.77
214.83
184.76
155.71
125.42
92.40
56.72
20.04
-15.18
-46.84
-74.22
-98.34
-121.45
-146.05
-173.72
-204.42
-236.66
-268.09
-296.72
-321.69
-343.71
-364.83
-387.89
-415.80
-450.64
-492.40
-538.11
-581.86
-615.90
-632.97
-628.92
-604.38
-564.83
-518.83
-475.18
-440.19
-416.19
-401.49
-391.81
-382.38
-369.77
-352.91
-332.98
-312.46
-293.85
-278.71
-267.35
-259.16
-253.28
-248.63
-243.93
-237.59
-228.04
-214.59
-198.05
-180.60
-164.72
-151.82
-141.28
-130.77
-117.75
-100.97
-81.29
-61.18
-43.66
-31.05
-24.31
-22.96
-25.38
-29.24
-32.05
-31.76
-27.50
-19.83
-10.62
-2.05
4.73
10.16
16.69
28.03
48.06
79.60
122.77
173.63
223.71
261.48
276.22
262.71
224.67
174.32
127.90
99.01
93.13
106.32
128.59
149.52
163.14
169.12
170.65
170.87
170.38
167.36
159.80
147.72
134.08
123.98
122.12
130.93
150.09
177.34
210.17
246.49
284.28
320.14
348.70
363.24
358.03
330.72
283.53
221.99
152.19
78.42
2.96
-71.98
-141.71
-198.11
-231.57
-234.63
-205.24
-147.53
-70.02
17.58
106.65
190.08
261.68
315.27
345.31
348.68
326.50
284.56
231.82
177.61
128.97
89.28
58.55
34.60
14.64
-3.60
-21.53
-39.78
-58.49
-77.60
-96.74
-114.99
-130.75
-142.09
-147.47
-146.51
-140.31
-130.98
-120.65
-110.51
-100.43
-89.43
-76.55
-61.53
-44.89
-27.26
-8.50
12.52
37.36
66.90
100.42
135.52
168.99
198.27
222.43
242.25
259.01
273.17
283.81
289.41
289.44
285.48
280.77
278.22
278.44
279.19
277.22
271.05
262.77
257.49
260.50
274.00
295.59
319.29
338.40
348.38
348.00
338.35
321.14
297.39
267.17
230.49
187.95
141.07
91.86
42.47
-5.07
-48.77
-86.84
-117.97
-141.70
-158.52
-169.65
-176.50
-180.28
-181.86
-182.04
-181.85
-182.72
-186.07
-192.79
-202.66
-214.27
-225.46
-234.05
-238.60
-238.75
-235.17
-229.16
-222.15
-215.33
-209.43
-204.75
-201.21
-198.55
-196.39
-194.50
-192.71
-190.94
-189.15
-187.22
-184.95
-182.10
-178.49
-174.07
-168.96
-163.33
-157.29
-150.85
-143.95
-136.56
-128.76
-120.83
-113.13
-106.04
-99.87
-94.68
-90.34
-86.56
-83.10
-79.84
-76.75
-73.94
-71.54
-69.82
-68.96
-69.01
-69.83
-71.06
-72.20
-72.69
-72.11
-70.26
-67.41
-63.86
-59.81
-55.32
-50.46
-45.35
-40.20
-35.36
-31.10
-28.31
-27.47
-28.50
-31.01
-34.47
-38.39
-42.18
-45.42
-47.81
-50.73
-55.25
-61.75
-70.02
-79.46
-89.38
-98.55
-106.19
-111.55
-116.67
-123.25
-131.93
-142.48
-154.11
-165.77
-175.77
-183.24
-187.32
-190.04
-191.74
-190.43
-183.20
-168.28
-146.92
-122.62
-101.22
-68.28
-18.64
43.71
107.85
162.66
201.20
216.70
213.83
198.61
178.80
159.66
145.95
143.62
154.41
175.65
201.41
225.86
243.85
253.10
251.34
238.53
216.66
188.81
158.97
131.34
110.24
97.89
94.46
96.49
99.47
99.56
94.41
83.76
68.95
52.54
36.44
21.94
8.77
-3.68
-15.67
-27.13
-37.53
-46.32
-52.96
-57.43
-59.88
-60.77
-60.39
-58.80
-56.08
-52.48
-48.46
-44.64
-41.66
-39.84
-39.08
-38.95
-38.93
-38.69
-38.24
-37.94
-38.34
-39.91
-42.93
-47.24
-52.17
-56.58
-59.08
-58.27
-53.18
-43.46
-29.40
-11.72
8.73
31.12
54.74
78.94
103.05
126.50
148.80
169.61
188.63
205.57
220.18
232.39
242.40
250.51
256.73
260.28
259.46
252.03
236.25
211.92
180.92
147.02
114.75
87.89
68.42
56.20
49.38
45.58
42.79
39.87
36.42
32.45
28.05
23.41
19.02
15.77
14.61
15.91
18.86
21.39
20.77
14.78
2.61
-14.69
-34.73
-54.82
-72.85
-87.91
-100.09
-109.99
-118.18
-124.89
-130.06
-133.51
-135.34
-136.07
-136.66
-138.23
-141.63
-147.01
-153.63
-159.99
-164.47
-166.03
-164.63
-161.29
-157.35
-153.67
-150.08
-145.50
-138.92
-130.49
-122.00
-116.10
-114.94
-118.36
-123.48
-125.84
-121.74
-109.76
-90.85
-66.87
-39.04
-7.93
24.90
54.92
74.45
75.67
55.17
17.39
-25.73
-59.60
-73.52
-65.44
-42.33
-15.99
2.69
8.10
0.57
-15.80
-36.41
-58.16
-79.74
-100.43
-118.90
-132.62
-138.87
-136.01
-124.57
-107.50
-89.47
-75.24
-68.06
-68.69
-75.54
-85.90
-97.37
-108.95
-120.82
-133.90
-148.86
-165.58
-182.20
-196.21
-205.60
-209.74
-209.22
-204.87
-197.55
-188.00
-177.21
-165.70
-153.87
-141.77
-129.04
-114.40
-94.82
-67.10
-29.44
16.63
67.75
117.89
159.18
183.51
185.23
165.70
130.23
85.67
36.15
-12.32
-54.61
-87.15
-108.75
-119.37
-114.17
-90.55
-50.48
-4.54
42.32
88.05
132.78
175.90
217.12
265.17
326.25
400.10
473.00
540.08
600.39
655.70
705.97
750.81
800.92
862.80
934.24
996.06
1041.91
1072.51
1093.91
1109.95
1054.13
893.53
643.04
414.69
224.76
66.97
-81.38
-219.84
-343.24
-446.23
-515.30
-545.41
-541.83
-527.09
-511.34
-499.25
-491.69
-492.09
-503.10
-516.55
-525.74
-526.93
-527.41
-525.88
-519.79
-506.93
-490.35
-474.70
-444.65
-391.77
-316.46
-230.66
-140.26
-47.96
43.81
127.43
198.13
253.12
289.42
307.56
309.44
302.71
290.25
277.51
267.00
258.82
251.73
242.28
227.43
204.37
172.77
133.60
89.64
44.00
0.65
-36.65
-65.78
-85.96
-98.15
-104.90
-109.56
-114.40
-120.68
-128.15
-136.03
-143.99
-151.94
-160.01
-168.26
-176.52
-183.97
-190.03
-194.09
-196.05
-196.25
-194.84
-191.77
-186.91
-180.62
-173.69
-167.39
-162.50
-159.12
-156.64
-153.99
-150.23
-145.23
-140.02
-136.78
-138.46
-147.56
-166.23
-195.55
-234.60
-279.61
-324.23
-361.08
-383.76
-388.56
-373.27
-339.09
-290.33
-232.88
-172.31
-113.15
-59.07
-13.24
22.07
49.81
73.12
93.22
109.38
120.81
127.76
131.07
131.41
129.52
132.71
146.71
172.69
207.88
249.10
294.47
342.85
392.50
441.38
495.57
558.27
625.97
689.91
741.80
777.44
796.53
800.60
746.23
618.27
439.83
257.48
106.28
-4.35
-82.65
-143.03
-196.56
-253.79
-309.01
-353.51
-382.68
-397.95
-403.58
-403.98
-397.20
-383.69
-364.62
-334.85
-292.12
-240.31
-188.07
-143.62
-111.12
-90.40
-79.23
-74.15
-67.75
-55.60
-38.35
-20.48
-6.54
1.34
3.66
1.88
-2.04
-4.37
-3.14
0.98
5.54
8.31
8.59
7.18
5.26
4.26
6.04
11.53
20.29
30.87
41.61
51.31
59.43
65.82
70.81
74.98
78.84
82.63
86.31
89.64
92.35
94.25
95.18
95.16
94.20
92.38
89.66
86.00
81.38
75.86
69.63
62.90
55.83
48.44
40.61
32.21
23.22
13.80
4.34
-4.71
-13.00
-20.34
-26.74
-32.32
-37.22
-41.51
-45.19
-48.17
-50.37
-51.74
-52.28
-52.02
-51.04
-49.46
-47.42
-45.08
-42.59
-40.01
-37.27
-34.21
-30.67
-26.53
-21.88
-16.89
-11.79
-6.80
-2.07
2.32
6.34
10.04
13.54
17.01
20.60
24.36
28.11
31.53
34.26
35.95
36.43
35.64
33.60
30.35
26.00
20.72
14.76
8.46
2.12
-4.05
-9.89
-15.31
-20.17
-24.31
-27.55
-29.80
-31.07
-31.46
-31.18
-30.45
-29.58
-28.78
-28.27
-28.08
-28.12
-28.15
-27.92
-27.24
-26.01
-24.27
-22.13
-19.73
-17.20
-14.68
-12.32
-10.25
-8.56
-7.25
-6.19
-5.22
-4.15
-2.89
-1.49
-0.09
1.15
2.10
2.79
3.35
3.96
4.77
5.76
6.76
7.52
7.83
7.64
7.09
6.48
6.22
6.67
8.05
10.44
13.66
17.30
20.86
23.76
25.60
26.19
25.56
23.88
21.37
18.17
14.41
10.17
5.59
0.76
-4.19
-9.15
-13.95
-18.33
-21.94
-24.43
-25.58
-25.36
-24.00
-21.87
-19.40
-16.92
-14.68
-12.76
-11.16
-9.87
-8.80
-7.90
-7.07
-6.23
-5.33
-4.43
-3.64
-3.23
-3.49
-4.60
-6.55
-9.08
-11.80
-14.37
-16.61
-18.57
-20.30
-21.62
-21.92
-20.15
-15.11
-5.90
7.70
25.02
44.62
64.76
83.78
100.52
114.40
125.36
133.73
140.00
144.74
148.52
151.75
154.59
156.91
158.38
158.71
157.88
156.26
154.48
153.11
152.24
151.32
149.34
145.34
138.98
130.87
122.36
114.88
109.17
104.75
99.99
92.83
81.70
66.30
47.73
27.93
8.80
-8.59
-24.22
-39.05
-54.42
-71.70
-92.01
-115.87
-142.64
-169.50
-191.02
-200.18
-190.73
-160.45
-113.15
-58.10
-6.79
31.62
53.57
61.61
61.80
59.78
57.91
54.77
47.03
32.14
9.88
-17.72
-48.09
-79.77
-113.21
-150.15
-192.23
-239.70
-290.99
-343.60
-395.27
-444.60
-490.43
-530.41
-559.81
-571.91
-559.96
-519.96
-452.71
-363.66
-260.73
-151.43
-41.15
66.53
168.07
258.72
332.75
385.42
415.39
425.52
421.65
409.92
394.22
375.42
352.36
323.96
290.92
255.88
222.30
192.76
167.91
146.42
126.08
105.05
82.87
60.66
40.54
24.48
13.21
5.84
0.27
-5.94
-14.35
-25.03
-36.74
-47.62
-56.25
-62.32
-66.50
-70.00
-73.70
-77.55
-80.64
-81.75
-80.28
-76.94
-73.95
-74.30
-80.49
-93.21
-110.86
-130.13
-147.43
-160.49
-169.37
-176.50
-185.90
-202.23
-230.05
-273.05
-332.95
-408.06
-492.37
-576.03
-647.41
-696.64
-718.57
-713.98
-688.25
-648.49
-600.59
-547.83
-491.45
-432.45
-373.02
-316.63
-266.59
-224.24
-187.88
-153.36
-115.94
-72.56
-23.11
29.55
81.33
128.95
171.45
210.21
247.69
285.57
323.46
358.88
388.40
409.31
420.81
424.20
422.34
418.52
415.65
415.64
419.10
424.95
430.20
430.26
420.08
395.96
357.20
306.75
250.38
194.68
144.83
103.37
70.41
44.74
25.21
11.20
2.42
-1.78
-2.87
-2.81
-3.39
-5.52
-9.02
-12.82
-15.52
-16.11
-14.24
-10.21
-4.74
1.44
8.00
15.04
23.11
32.84
44.53
57.92
72.09
85.72
97.50
106.57
112.73
116.38
118.27
119.13
119.41
119.30
118.81
117.90
116.62
115.01
113.16
111.07
108.69
105.91
102.54
98.34
92.97
86.15
77.79
68.16
57.86
47.72
38.55
30.82
24.60
19.59
15.31
11.39
7.69
4.24
1.12
-1.70
-4.47
-7.55
-11.25
-15.66
-20.59
-25.63
-30.30
-34.21
-37.18
-39.23
-40.57
-41.49
-42.24
-42.96
-43.64
-44.16
-44.40
-44.28
-43.86
-43.19
-42.32
-41.18
-39.69
-37.81
-35.66
-33.50
-31.64
-30.31
-29.56
-29.29
-29.31
-29.42
-29.42
-29.13
-28.38
-26.96
-24.69
-21.49
-17.38
-12.54
-7.30
-2.03
2.87
6.99
10.09
12.09
13.07
13.25
12.81
11.85
10.37
8.32
5.72
2.70
-0.54
-3.77
-6.84
-9.64
-12.16
-14.35
-16.13
-17.43
-18.21
-18.54
-18.55
-18.40
-18.19
-17.91
-17.51
-16.90
-16.12
-15.24
-14.45
-13.87
-13.61
-13.71
-14.10
-14.60
-14.98
-14.89
-13.99
-12.04
-8.96
-4.92
-0.26
4.62
9.38
13.88
18.04
21.85
25.19
27.87
29.62
30.21
29.58
27.85
25.26
22.03
18.33
14.30
10.04
5.72
1.56
-2.20
-5.47
-8.27
-10.76
-13.12
-15.46
-17.73
-19.78
-21.41
-22.50
-23.02
-23.11
-22.96
-22.78
-22.65
-22.56
-22.37
-21.96
-21.31
-20.62
-20.21
-20.35
-21.13
-22.31
-23.38
-23.73
-22.85
-20.48
-16.68
-11.74
-5.99
0.20
6.54
12.75
18.56
23.66
27.81
30.85
32.80
33.80
34.06
33.71
32.79
31.23
28.91
25.85
22.15
18.09
13.99
10.13
6.70
3.74
1.18
-1.14
-3.38
-5.63
-7.93
-10.27
-12.61
-14.95
-17.27
-19.49
-21.43
-22.86
-23.57
-23.49
-22.75
-21.67
-20.57
