1479331472.00
64.000000
-0.00
-0.00
-0.00
-0.00
-0.00
-0.00
-0.00
-0.00
-0.00
-0.00
0.01
0.02
0.02
-0.00
-0.03
-0.07
-0.07
0.00
0.16
0.41
0.72
1.01
1.22
1.34
1.37
1.40
1.52
1.79
2.26
2.84
3.44
3.95
4.31
4.55
4.79
5.16
5.76
6.65
7.69
8.65
9.30
9.57
9.57
9.63
10.11
11.30
13.34
15.85
18.27
20.04
20.92
21.17
21.49
22.75
25.56
30.22
35.94
41.57
45.97
48.59
49.81
50.87
53.32
58.27
66.19
75.87
85.45
93.05
97.73
99.97
101.52
104.76
109.58
118.29
130.89
146.33
162.00
173.68
176.22
165.21
139.13
100.83
57.58
17.95
-11.14
-27.50
-34.44
-39.08
-49.08
-69.51
-101.46
-142.32
-188.29
-235.68
-281.89
-325.02
-363.19
-394.00
-414.76
-423.35
-418.90
-402.55
-376.93
-345.27
-310.30
-273.63
-235.65
-196.18
-155.14
-113.17
-71.85
-33.23
0.81
29.21
51.96
69.94
84.47
96.73
107.35
116.32
123.23
127.61
129.27
128.50
125.94
122.38
118.47
114.57
110.72
106.74
102.39
97.56
92.28
86.74
81.17
75.76
70.63
65.79
61.19
56.79
52.53
48.40
44.42
40.61
36.99
33.56
30.31
27.26
24.41
21.76
19.30
17.03
14.97
13.10
11.42
9.93
8.61
7.45
6.44
5.56
4.81
4.16
3.60
3.13
2.73
2.40
2.12
1.88
1.68
1.51
1.36
1.24
1.14
1.04
0.97
0.90
0.84
0.79
0.74
0.70
0.66
0.62
0.59
0.56
0.53
0.51
0.49
0.46
0.44
0.43
0.41
0.39
0.38
0.36
0.35
0.34
0.32
0.31
0.30
0.29
0.28
0.27
0.26
0.25
0.24
0.24
0.23
0.22
0.21
0.21
0.20
0.19
0.19
0.18
0.18
0.17
0.16
0.16
0.16
0.15
0.14
0.14
0.14
0.14
0.13
0.14
0.15
0.15
0.17
0.18
0.21
0.23
0.26
0.29
0.33
0.36
0.40
0.44
0.48
0.53
0.57
0.61
0.66
0.71
0.76
0.82
0.88
0.95
1.03
1.12
1.21
1.32
1.44
1.58
1.73
1.90
2.09
2.30
2.54
2.79
3.08
3.38
3.73
4.10
4.51
4.96
5.45
5.97
6.51
7.05
7.58
8.12
8.70
9.34
10.05
10.86
11.75
12.70
13.67
14.64
15.63
16.64
17.67
18.74
19.76
20.62
21.15
21.17
20.57
19.29
17.37
14.86
11.87
8.40
4.49
0.14
-4.59
-9.55
-14.44
-18.87
-22.46
-24.98
-26.41
-27.02
-27.25
-27.50
-28.00
-28.65
-29.13
-29.01
-28.05
-26.37
-24.46
-23.02
-22.65
-23.53
-25.31
-27.24
-28.52
-28.73
-27.96
-26.90
-26.37
-27.09
-29.39
-33.21
-38.17
-43.53
-48.07
-50.24
-48.50
-41.87
-30.54
-15.98
-0.63
12.79
21.99
25.62
23.47
16.31
5.66
-6.83
-19.58
-31.22
-40.35
-45.59
-45.64
-39.86
-29.04
-15.42
-2.42
6.79
11.07
12.13
14.04
21.47
37.80
62.71
93.35
124.95
152.70
173.51
186.85
194.42
199.19
204.19
211.06
219.32
226.32
228.21
221.91
206.83
185.39
162.06
141.43
126.50
118.27
116.06
118.51
124.09
130.56
134.62
131.99
118.54
92.00
53.26
6.27
-43.27
-89.67
-128.75
-158.24
-177.71
-188.00
-190.96
-188.85
-184.03
-178.48
-173.38
-169.05
-165.26
-161.28
-156.35
-149.89
-141.64
-131.79
-120.88
-109.63
-98.68
-88.38
-78.92
-70.37
-62.68
-55.80
-49.62
-44.01
-38.95
-34.63
-31.62
-30.71
-32.64
-37.55
-44.71
-52.39
-58.39
-60.56
-57.58
-49.21
-36.31
-20.35
-3.06
14.00
29.64
43.05
53.78
61.63
66.62
68.93
68.94
67.19
64.18
60.31
55.62
49.82
42.50
33.39
22.68
11.01
-0.84
-12.24
-22.97
-33.10
-42.60
-51.11
-57.96
-62.50
-64.60
-64.90
-64.78
-65.70
-68.81
-74.34
-81.64
-89.48
-96.58
-102.12
-106.06
-109.08
-112.22
-116.40
-121.83
-127.91
-133.38
-136.77
-137.11
-134.24
-128.94
-122.57
-116.62
-112.06
-109.14
-107.41
-106.15
-104.87
-103.68
-103.36
-105.07
-109.86
-118.28
-130.05
-143.92
-157.61
-168.02
-171.72
-165.76
-148.58
-120.65
-84.57
-44.31
-3.96
33.35
66.08
94.13
118.20
139.05
157.00
171.86
183.20
190.73
194.48
194.75
191.92
186.18
177.51
165.72
150.80
133.11
113.46
92.96
72.66
53.33
35.35
19.00
4.73
-6.56
-13.73
-15.83
-12.54
-4.42
7.26
20.95
35.37
49.75
63.79
77.35
90.12
101.58
111.16
118.58
123.96
127.80
130.66
132.79
134.00
133.83
131.88
128.15
123.33
118.66
115.60
115.28
118.15
123.70
130.64
137.26
141.84
142.99
139.80
131.58
117.94
98.97
75.38
48.65
20.85
-5.68
-28.91
-47.67
-61.95
-72.60
-80.60
-86.42
-90.00
-91.14
-90.05
-87.66
-85.15
-83.68
-83.59
-84.11
-84.03
-82.56
-79.79
-76.26
-72.03
-66.16
-57.72
-46.04
-30.98
-13.24
5.38
22.65
36.99
48.27
57.81
66.31
74.19
82.56
93.20
107.30
124.68
144.15
164.22
183.99
201.43
215.28
226.91
239.21
252.97
264.89
268.87
259.16
233.23
189.61
129.42
57.05
-21.60
-102.92
-186.63
-274.05
-366.07
-442.33
-479.96
-473.20
-434.80
-378.66
-312.11
-239.59
-166.42
-98.77
-41.56
0.47
25.39
35.87
37.76
36.31
34.84
35.77
41.27
52.15
64.16
69.32
60.61
36.06
-1.09
-44.03
-84.42
-115.15
-131.67
-133.06
-120.19
-94.43
-58.76
-20.35
10.41
24.54
19.95
3.91
-10.45
-10.89
7.56
39.37
70.53
85.68
75.85
42.52
-4.42
-52.04
-89.94
-112.80
-120.01
-113.92
-97.47
-74.00
-47.33
-22.08
-2.99
6.52
6.37
0.01
-7.65
-13.36
-17.81
-25.23
-39.65
-61.61
-86.01
-104.16
-108.46
-96.36
-72.26
-45.21
-23.56
-9.75
-0.04
12.58
33.14
60.59
86.74
100.37
93.06
65.91
29.51
0.10
-7.88
11.17
51.64
99.33
138.62
158.75
157.50
140.46
117.39
97.26
85.74
83.64
88.43
95.65
100.21
97.62
83.41
55.71
16.66
-27.14
-66.20
-90.75
-94.68
-78.31
-48.69
-16.95
6.95
18.44
20.12
19.72
25.00
39.09
59.84
80.36
94.30
98.99
96.50
91.82
89.30
90.29
92.72
91.70
84.02
66.73
40.05
6.82
-28.43
-60.54
-85.53
-101.81
-110.23
-113.51
-114.56
-114.54
-112.50
-106.56
-95.55
-80.60
-64.79
-51.52
-43.26
-40.28
-40.50
-41.00
-39.64
-35.34
-28.96
-21.49
-12.73
-2.14
11.27
28.76
50.59
75.02
99.74
120.60
134.59
141.43
141.82
137.87
133.32
131.71
134.11
139.95
143.38
137.35
116.72
77.63
20.72
-47.77
-119.12
-186.66
-246.27
-301.92
-360.43
-411.79
-446.69
-461.89
-458.81
-438.74
-416.49
-383.29
-332.99
-267.04
-193.93
-120.18
-59.35
-20.03
-0.20
12.25
36.07
82.38
150.38
226.50
287.32
309.52
281.99
210.25
113.72
19.42
-52.72
-95.50
-115.06
-126.50
-144.76
-174.38
-207.35
-227.98
-220.43
-179.29
-110.74
-28.94
49.85
112.85
154.66
175.62
179.04
169.99
153.39
133.71
113.88
93.17
67.56
33.62
-6.81
-44.56
-64.83
-53.92
-6.33
71.30
161.91
244.02
299.13
316.67
295.30
242.11
170.07
94.86
30.20
-16.42
-45.84
-65.78
-85.54
-109.94
-135.27
-150.47
-142.31
-102.26
-31.59
58.75
152.11
231.34
283.22
300.08
279.48
224.37
142.81
47.71
-44.10
-116.64
-160.22
-174.33
-166.32
-146.90
-123.95
-100.63
-76.16
-46.27
-6.92
42.35
97.96
153.57
201.27
234.35
245.49
227.01
178.42
107.82
29.34
-40.49
-88.44
-109.82
-106.08
-86.22
-63.37
-42.16
-18.20
16.72
69.94
143.53
231.81
326.22
412.94
473.76
498.57
485.41
435.61
353.55
245.88
97.48
-82.42
-248.00
-382.75
-481.28
-534.89
-542.76
-514.43
-468.02
-424.81
-396.52
-384.55
-382.37
-372.54
-337.44
-275.96
-203.64
-136.51
-83.41
-41.50
-4.04
32.56
61.70
78.50
77.30
56.91
23.32
-12.95
-39.18
-48.11
-41.63
-25.47
-5.82
10.86
20.87
24.04
22.07
17.94
13.72
9.44
5.42
3.42
4.80
11.45
25.17
45.93
71.55
97.50
118.03
129.02
130.17
124.19
115.89
110.15
109.65
114.01
120.29
124.43
122.96
114.73
100.88
84.52
69.44
58.82
54.20
55.36
60.89
68.58
76.17
81.17
81.36
75.25
62.98
46.85
30.96
19.27
13.39
11.30
8.39
0.30
-14.32
-32.88
-50.41
-62.77
-69.11
-72.08
-75.85
-83.22
-93.76
-104.35
-111.28
-112.55
-108.85
-102.39
-95.02
-86.87
-76.32
-61.34
-40.64
-14.57
14.80
43.56
66.63
78.88
76.61
59.27
30.39
-3.08
-32.99
-52.82
-60.08
-56.87
-48.56
-41.27
-39.70
-46.21
-61.12
-83.29
-110.19
-137.53
-159.29
-168.95
-161.71
-136.56
-97.25
-51.19
-7.01
28.10
50.31
59.26
57.15
47.31
33.37
19.16
8.99
7.42
18.42
43.88
82.38
129.02
176.44
217.09
245.52
259.74
261.29
253.95
241.77
227.60
212.64
197.14
181.51
167.01
155.50
148.37
145.47
144.83
143.46
138.96
130.75
120.49
110.99
104.61
101.85
101.15
99.66
94.78
85.32
72.02
57.10
43.19
32.42
25.55
21.72
18.75
13.72
3.96
-11.99
-33.54
-57.68
-79.85
-95.53
-102.01
-99.54
-91.01
-80.60
-71.87
-66.42
-63.68
-61.78
-58.91
-54.36
-48.55
-42.44
-36.69
-31.35
-26.21
-21.79
-20.02
-24.17
-37.81
-63.01
-98.98
-141.48
-184.05
-220.48
-247.20
-264.58
-275.99
-285.34
-294.36
-301.24
-301.50
-290.45
-265.85
-229.26
-185.56
-140.93
-100.65
-67.77
-42.79
-24.57
-11.41
-1.95
4.47
7.76
7.34
2.33
-8.15
-24.33
-44.95
-66.61
-84.00
-91.27
-84.17
-61.93
-27.83
12.01
50.80
83.38
107.22
122.19
129.41
130.32
126.48
119.90
113.28
109.56
110.90
117.50
127.34
136.88
142.58
142.16
135.49
124.32
111.48
99.63
90.29
83.38
77.52
70.78
61.62
49.52
35.03
19.34
3.70
-11.03
-24.36
-35.98
-45.62
-53.13
-58.61
-62.44
-65.08
-66.63
-66.68
-64.44
-59.28
-51.39
-41.89
-32.61
-25.36
-21.12
-19.69
-19.84
-19.83
-17.99
-13.21
-5.03
6.31
19.91
34.18
46.88
55.44
57.71
52.73
41.36
26.30
11.42
0.55
-3.44
0.67
12.41
30.00
50.82
71.75
89.60
101.52
105.56
101.20
89.47
72.70
53.88
35.77
20.32
8.16
-1.34
-9.79
-18.91
-29.64
-41.55
-52.79
-60.90
-63.89
-61.23
-54.01
-44.29
-34.12
-24.78
-16.73
-10.03
-4.99
-2.21
-2.26
-4.98
-9.32
-13.75
-17.03
-18.91
-20.12
-21.89
-25.00
-29.28
-33.72
-37.09
-38.71
-38.75
-37.97
-37.07
-36.12
-34.35
-30.49
-23.37
-12.66
0.76
14.99
27.67
36.85
41.73
42.93
42.11
41.24
41.61
43.30
45.25
45.93
44.22
40.12
34.80
30.08
27.72
28.62
32.50
37.94
42.77
44.53
41.02
30.97
14.49
-6.65
-29.28
-49.68
-64.61
-72.39
-73.19
-68.71
-61.22
-52.58
-43.78
-34.97
-26.05
-17.24
-9.44
-3.99
-2.26
-5.00
-12.04
-22.24
-33.89
-45.26
-55.13
-63.04
-69.03
-73.21
-75.21
-74.21
-69.32
-60.37
-48.44
-35.78
-24.92
-17.63
-14.20
-13.34
-13.07
-11.80
-9.20
-6.33
-4.92
-6.38
-10.97
-17.66
-24.65
-30.16
-33.17
-33.76
-32.77
-31.42
-30.91
-32.22
-36.00
-42.17
-49.39
-54.72
-54.11
-43.88
-22.54
7.83
41.87
72.76
94.85
105.66
106.24
99.95
90.35
79.75
68.80
57.34
45.44
33.93
24.12
16.96
12.38
9.27
5.94
1.16
-5.22
-12.11
-17.60
-19.85
-17.97
-12.48
-5.17
1.62
5.99
7.28
6.32
4.97
5.26
8.45
14.44
21.89
28.83
33.46
34.99
33.73
30.88
27.77
25.39
24.03
23.44
23.22
23.14
23.13
23.27
23.54
23.70
23.50
22.79
21.60
20.14
18.66
17.34
16.31
15.70
15.58
15.98
16.68
17.19
16.94
15.50
12.89
9.58
6.25
3.53
1.61
0.16
-1.55
-4.24
-8.34
-13.68
-19.53
-24.92
-29.04
-31.56
-32.88
-33.74
-34.88
-36.54
-38.35
-39.51
-39.23
-37.16
-33.59
-29.31
-25.32
-22.38
-20.78
-20.28
-20.29
-20.12
-19.27
-17.54
-14.94
-11.58
-7.54
-2.77
2.69
8.70
14.81
20.44
25.04
28.36
30.47
31.60
31.98
31.67
30.58
28.73
26.30
23.73
21.54
20.06
19.36
19.24
19.42
19.77
20.34
21.25
22.52
23.82
24.52
23.92
21.56
17.58
12.69
8.07
4.79
3.44
3.73
4.69
5.08
4.02
1.28
-2.66
-7.00
-11.06
-14.56
-17.51
-20.11
-22.51
-24.69
-26.66
-28.43
-30.14
-31.86
-33.48
-34.72
-35.15
-34.48
-32.74
-30.27
-27.60
-25.18
-23.17
-21.36
-19.22
-16.18
-11.81
-6.05
0.72
7.72
13.98
18.55
20.81
20.68
18.63
15.59
12.66
10.60
9.69
9.64
9.89
10.02
9.90
9.74
9.68
9.53
8.89
7.34
4.94
2.35
0.60
0.53
2.31
5.39
8.71
11.22
12.28
11.78
9.90
7.00
3.41
-0.42
-3.94
-6.59
-7.92
-7.85
-6.69
-5.07
-3.64
-2.98
-3.49
-5.35
-8.55
-12.84
-17.78
-22.71
-26.95
-29.95
-31.37
-31.11
-29.34
-26.40
-22.71
-18.60
-14.28
-9.68
-4.66
0.89
6.85
12.77
18.04
22.07
24.60
25.79
26.06
25.97
25.88
25.98
26.27
26.73
27.26
27.77
28.06
27.96
27.43
26.64
25.87
25.31
24.89
24.20
22.75
20.35
17.29
14.34
12.27
11.45
11.61
12.00
11.84
10.78
9.06
7.26
5.91
5.13
4.50
3.32
0.94
-2.93
-8.04
-13.70
-19.08
-23.51
-26.86
-29.49
-32.04
-35.03
-38.48
-41.83
-44.16
-44.69
-43.13
-39.88
-35.82
-31.86
-28.49
-25.65
-22.79
-19.30
-14.79
-9.33
-3.34
2.62
8.06
12.69
16.32
18.87
20.21
20.34
19.42
17.89
16.39
15.54
15.71
16.84
18.50
20.15
21.35
21.93
21.94
21.50
20.76
19.74
18.46
16.98
15.40
13.89
12.61
11.62
10.89
10.25
9.44
8.16
6.14
3.33
-0.09
-3.61
-6.64
-8.68
-9.63
-9.80
-9.88
-10.51
-12.05
-14.40
-17.07
-19.51
-21.35
-22.67
-23.84
-25.39
-27.62
-30.51
-33.64
-36.33
-37.96
-38.12
-36.80
-34.25
-30.89
-27.05
-22.86
-18.30
-13.40
-8.25
-3.11
1.70
5.96
9.67
13.04
16.30
19.56
22.66
25.28
27.10
28.03
28.20
27.94
27.61
27.41
27.48
27.82
28.44
29.33
30.42
31.41
31.85
31.29
29.43
26.44
22.88
19.45
16.65
14.63
13.14
11.76
10.14
8.19
6.01
3.74
1.47
-0.81
-3.15
-5.57
-8.03
-10.41
-12.58
-14.45
-15.97
-17.11
-17.89
-18.37
-18.67
-18.88
-19.06
-19.24
-19.47
-19.93
-20.86
-22.50
-24.90
-27.67
-30.09
-31.19
-30.24
-26.99
-21.83
-15.66
-9.54
-4.26
-0.06
3.32
6.41
9.65
13.13
16.58
19.56
21.70
22.97
23.58
23.86
24.12
24.45
24.82
25.17
25.47
25.83
26.28
26.74
26.98
26.78
26.05
24.92
23.67
22.58
21.71
20.94
20.02
18.78
17.20
15.37
13.43
11.49
9.63
7.87
6.28
4.81
3.25
1.23
-1.65
-5.60
-10.39
-15.52
-20.30
-24.19
-26.98
-28.78
-29.90
-30.69
-31.42
-32.30
-33.43
-34.90
-36.65
-38.49
-39.99
-40.49
-39.35
-36.06
-30.49
-23.02
-14.43
-5.78
1.96
8.27
13.26
17.51
21.87
26.95
32.77
38.72
43.83
47.27
48.84
49.05
48.99
49.74
51.88
55.23
58.90
61.85
63.36
63.47
62.89
62.62
63.44
65.58
68.59
71.93
75.19
78.38
81.98
86.56
92.64
100.72
111.82
127.66
150.41
181.38
219.72
261.69
301.39
332.81
352.14
359.05
356.41
348.47
338.72
328.68
317.84
304.87
288.87
269.83
248.43
225.26
200.39
173.52
144.56
114.10
83.27
53.59
26.15
1.19
-21.99
-44.56
-67.66
-91.81
-116.80
-141.85
-166.12
-189.13
-211.04
-232.62
-255.14
-280.03
-308.33
-339.97
-373.14
-404.19
-428.39
-441.45
-441.08
-427.95
-405.37
-377.87
-349.47
-322.42
-297.15
-273.13
-250.05
-228.38
-209.22
-193.45
-180.98
-170.65
-160.78
-150.00
-137.94
-125.23
-113.16
-102.85
-94.78
-88.65
-83.73
-79.27
-74.85
-70.47
-66.43
-63.09
-60.68
-59.20
-58.31
-57.46
-55.92
-53.14
-48.86
-43.31
-36.98
-30.42
-23.94
-17.50
-10.92
-4.16
2.53
8.66
13.75
17.58
20.33
22.42
24.34
26.34
28.48
30.59
32.45
33.90
34.82
35.17
34.95
34.19
33.01
31.59
30.17
28.96
28.10
27.58
27.25
26.88
26.26
25.25
23.82
22.02
19.91
17.59
15.14
12.63
10.11
7.54
4.82
1.91
-1.08
-3.88
-6.11
-7.56
-8.39
-9.06
-10.24
-12.43
-15.72
-19.87
-24.47
-29.15
-33.75
-38.13
-41.93
-44.50
-45.06
-42.98
-38.21
-31.31
-23.23
-14.97
-7.21
-0.19
6.16
12.00
17.45
22.43
26.77
30.34
33.05
34.89
35.92
36.23
35.94
35.29
34.48
33.69
33.01
32.44
31.91
31.39
30.82
30.14
29.21
27.90
26.11
23.93
21.63
19.59
18.09
17.11
16.36
15.37
13.76
11.54
9.05
6.82
5.26
4.35
3.71
2.80
1.25
-0.94
-3.45
-5.92
-8.18
-10.30
-12.50
-14.98
-17.70
-20.51
-23.18
-25.61
-27.77
-29.69
-31.29
-32.29
-32.28
-30.81
-27.66
-22.89
-16.88
-10.24
-3.56
2.67
8.20
13.01
17.26
21.17
24.90
28.47
31.75
34.48
36.36
37.27
37.32
36.82
36.21
35.78
35.66
35.70
35.70
35.49
35.08
34.51
33.72
32.55
30.73
28.14
24.95
21.61
18.67
16.55
15.33
14.74
14.37
13.92
13.25
12.41
11.50
10.52
9.36
7.90
6.09
4.02
1.83
-0.34
-2.53
-4.80
-7.28
-9.99
-12.88
-15.81
-18.60
-21.18
-23.56
-25.87
-28.37
-31.27
-34.63
-38.27
-41.67
-44.04
-44.57
-42.66
-38.25
-31.84
-24.44
-17.13
-10.75
-5.64
-1.68
1.56
4.54
7.55
10.63
13.64
16.40
18.74
20.66
22.23
23.54
24.59
25.31
25.54
25.17
24.28
23.12
22.12
21.62
21.71
22.12
22.40
22.15
21.23
19.83
18.29
16.90
15.70
14.57
13.27
11.67
9.81
7.93
6.27
4.98
4.05
3.25
2.31
0.99
-0.89
-3.31
-6.12
-9.06
-11.87
-14.39
-16.69
-18.95
-21.50
-24.52
-27.92
-31.23
-33.79
-34.90
-34.10
-31.37
-27.09
-21.88
-16.33
-10.92
-5.83
-1.10
3.34
7.59
11.70
15.68
19.41
22.65
25.10
26.56
27.03
26.81
26.32
25.96
25.90
26.07
26.23
26.17
25.77
25.07
24.14
23.04
21.72
20.20
18.54
16.97
15.73
15.03
14.94
15.29
15.76
15.90
15.23
13.46
10.61
7.11
3.63
0.81
-1.03
-2.10
-2.96
-4.23
-6.21
-8.72
-11.26
-13.32
-14.72
-15.63
-16.49
-17.74
-19.64
-22.31
-25.74
-29.88
-34.50
-39.12
-42.94
-45.03
-44.64
-41.50
-35.88
-28.53
-20.40
-12.37
-5.08
1.18
6.36
10.69
14.45
17.95
21.40
24.88
28.29
31.41
33.96
35.66
36.37
36.18
35.36
34.33
33.44
32.87
32.55
32.22
31.65
30.75
29.64
28.46
27.29
26.03
24.50
22.60
20.49
18.45
16.79
15.57
14.56
13.33
11.51
9.08
6.37
3.90
2.14
1.25
1.04
1.06
0.81
-0.11
-1.95
-4.74
-8.40
-12.66
-17.20
-21.58
-25.42
-28.54
-31.03
-33.24
-35.54
-38.18
-41.14
-43.98
-46.10
-46.82
-45.64
-42.39
-37.29
-30.84
-23.78
-16.80
-10.44
-4.96
-0.33
3.60
6.90
9.52
11.21
11.84
11.51
10.67
9.92
9.76
10.43
11.85
13.74
15.85
18.11
20.57
23.24
26.01
28.57
30.56
31.73
32.01
31.56
30.63
29.40
27.98
26.31
24.25
21.78
18.94
15.91
12.92
10.08
7.50
5.13
2.91
0.74
-1.47
-3.80
-6.24
-8.64
-10.77
-12.40
-13.44
-14.13
-14.92
-16.29
-18.47
-21.30
-24.35
-27.13
-29.33
-30.88
-31.91
-32.50
-32.58
-31.94
-30.31
-27.61
-23.97
-19.69
-15.15
-10.67
-6.45
-2.61
0.80
3.76
6.27
8.35
10.00
11.26
12.21
13.01
13.81
14.72
15.71
16.62
17.20
17.31
17.06
16.72
16.73
17.27
18.17
18.88
18.74
17.34
14.78
11.59
8.51
6.02
4.17
2.64
1.04
-0.78
-2.69
-4.42
-5.91
-7.38
-9.31
-12.09
-15.78
-19.93
-23.79
-26.70
-28.33
-28.85
-28.82
-28.93
-29.64
-31.16
-33.33
-35.72
-37.75
-38.80
-38.35
-36.14
-32.23
-26.94
-20.73
-14.05
-7.18
-0.35
6.21
12.24
17.43
21.60
24.79
27.18
29.00
30.35
31.12
31.19
30.53
29.42
28.32
27.73
27.85
28.62
29.67
30.58
31.09
31.10
30.66
29.79
28.47
26.67
24.46
22.08
19.91
18.31
17.38
16.92
16.52
15.80
14.59
13.08
11.63
10.55
9.95
9.57
9.06
8.09
6.53
4.46
2.03
-0.60
-3.36
-6.21
-9.16
-12.21
-15.40
-18.78
-22.35
-26.09
-29.89
-33.54
-36.67
-38.83
-39.48
-38.21
-34.90
-29.76
-23.39
-16.55
-9.87
-3.72
1.87
7.00
11.77
16.14
19.95
23.09
25.51
27.25
28.29
28.53
27.84
26.18
23.82
21.25
18.98
17.39
16.49
16.03
15.60
14.89
13.86
12.62
11.35
10.23
9.32
8.56
7.81
6.88
5.58
3.73
1.27
-1.64
-4.69
-7.51
-9.92
-11.97
-13.98
-16.28
-18.95
-21.80
-24.41
-26.50
-28.06
-29.41
-30.94
-32.80
-34.83
-36.62
-37.90
-38.64
-39.16
-39.87
-40.94
-42.14
-42.88
-42.48
-40.44
-36.70
-31.55
-25.56
-19.22
-12.89
-6.74
-0.78
4.96
10.37
15.26
19.45
22.82
25.39
27.31
28.74
29.77
30.43
30.69
30.55
30.05
29.26
28.27
27.19
26.08
25.07
24.30
23.87
23.74
23.70
23.47
22.76
21.44
19.55
17.23
14.63
11.88
9.06
6.22
3.41
0.64
-2.09
-4.84
-7.56
-10.20
-12.58
-14.65
-16.52
-18.61
-21.39
-25.23
-30.12
-35.62
-41.01
-45.47
-48.33
-49.18
-47.90
-44.59
-39.59
-33.41
-26.68
-19.96
-13.60
-7.67
-2.07
3.34
8.52
13.24
17.21
20.25
22.41
23.92
25.03
25.92
26.61
27.11
27.45
27.72
28.06
28.50
28.88
28.98
28.57
27.65
26.38
25.10
24.12
23.54
23.24
22.88
22.13
20.72
18.55
15.75
12.51
9.09
5.69
2.38
-0.80
-3.87
-6.81
-9.54
-11.96
-14.03
-15.79
-17.38
-19.00
-20.76
-22.73
-24.91
-27.33
-30.08
-33.27
-36.83
-40.40
-43.28
-44.62
-43.78
-40.55
-35.27
-28.72
-21.77
-15.10
-9.08
-3.73
1.12
5.63
9.89
13.82
17.30
20.13
22.17
23.43
24.12
24.52
24.96
25.65
26.60
27.62
28.54
29.19
29.55
29.71
29.77
29.80
29.89
30.05
30.32
30.63
30.76
30.44
29.45
27.72
25.38
22.76
20.20
17.99
16.24
14.92
13.93
13.05
12.03
10.68
8.84
6.54
3.90
1.15
-1.62
-4.30
-6.87
-9.31
-11.60
-13.82
-16.20
-19.06
-22.70
-27.15
-32.11
-36.94
-40.84
-43.09
-43.21
-41.08
-36.98
-31.56
-25.62
-19.98
-15.17
-11.27
-7.95
-4.67
-0.91
3.53
8.46
13.45
17.98
21.64
24.19
25.55
25.80
25.11
23.76
22.14
20.70
19.85
19.82
20.60
21.93
23.30
24.14
23.95
22.51
19.96
16.78
13.66
11.14
9.49
8.57
8.00
7.38
6.51
5.37
4.00
2.32
0.17
-2.63
-6.07
-9.84
-13.47
-16.50
-18.72
-20.15
-20.99
-21.51
-22.00
-22.74
-24.03
-26.11
-29.02
-32.62
-36.49
-40.11
-42.88
-44.26
-43.85
-41.46
-37.20
-31.48
-24.90
-18.11
-11.62
-5.67
-0.23
4.78
9.40
13.52
16.93
19.45
21.01
21.77
22.03
22.20
22.57
23.28
24.22
25.04
25.26
24.49
22.58
19.71
16.30
12.84
9.74
7.23
5.41
4.28
3.83
4.01
4.66
5.52
6.16
6.22
5.51
4.07
2.16
0.13
-1.73
-3.28
-4.57
-5.80
-7.24
-9.19
-11.82
-15.07
-18.71
-22.40
-25.86
-28.99
-31.84
-34.40
-36.42
-37.45
-36.94
-34.63
-30.69
-25.74
-20.45
-15.26
-10.19
-4.95
0.76
6.97
13.34
19.35
24.50
28.56
31.56
33.66
35.02
35.69
35.71
35.15
34.22
33.17
32.20
31.37
30.62
29.79
28.72
27.32
25.53
23.40
21.06
18.76
16.75
15.22
14.18
13.41
12.57
11.32
9.56
7.39
5.09
2.94
1.04
-0.72
-2.57
-4.72
-7.21
-9.91
-12.63
-15.23
-17.77
-20.48
-23.60
-27.30
-31.49
-35.88
-40.10
-43.78
-46.68
-48.55
-49.16
-48.26
-45.69
-41.53
-36.11
-29.95
-23.55
-17.23
-11.08
-5.02
1.07
7.14
13.07
18.64
23.63
27.91
31.41
34.10
35.99
37.10
37.52
37.34
36.67
35.63
34.39
33.17
32.16
31.49
31.11
30.81
30.21
29.02
27.10
24.57
21.75
18.94
16.35
13.95
11.53
8.86
5.77
2.39
-0.99
-3.98
-6.26
-7.78
-8.69
-9.29
-9.94
-10.90
-12.35
-14.37
-16.87
-19.65
-22.38
-24.70
-26.43
-27.74
-29.05
-30.95
-33.80
-37.49
-41.47
-44.93
-47.15
-47.77
-46.71
-44.14
-40.22
-35.15
-29.11
-22.35
-15.21
-7.99
-1.02
5.45
11.20
16.06
19.94
22.95
25.40
27.68
30.20
33.06
36.03
38.55
39.95
39.68
37.59
33.96
29.45
24.85
20.86
17.85
15.82
14.47
13.42
12.41
11.40
10.50
9.85
9.52
9.34
9.05
8.42
7.30
5.79
4.09
2.34
0.56
-1.42
-3.83
-6.67
-9.66
-12.35
-14.30
-15.47
-16.19
-17.04
-18.60
-21.12
-24.48
-28.32
-32.10
-35.25
-37.19
-37.46
-35.86
-32.49
-27.76
-22.20
-16.28
-10.21
-4.05
2.07
7.92
13.15
17.48
20.87
23.45
25.41
26.83
27.67
27.91
27.58
26.87
25.97
24.87
23.38
21.21
18.26
14.69
10.96
7.61
5.11
3.59
2.96
2.95
3.28
3.65
3.76
3.26
1.78
-0.97
-5.06
-10.16
-15.68
-20.91
-25.29
-28.61
-30.98
-32.79
-34.37
-35.98
-37.77
-39.89
-42.55
-45.96
-50.07
-54.38
-57.99
-59.79
-59.08
-55.70
-50.15
-43.20
-35.46
-27.18
-18.45
-9.47
-0.78
6.80
12.65
16.67
19.42
21.77
24.38
27.30
30.04
31.88
32.41
31.76
30.51
29.35
28.71
28.61
28.72
28.64
28.13
27.23
26.16
25.17
24.31
23.47
22.45
21.18
19.80
18.68
18.15
18.27
18.72
18.93
18.32
16.64
14.07
11.10
8.26
5.81
3.70
1.67
-0.57
-3.17
-6.05
-9.04
-11.92
-14.58
-17.03
-19.40
-21.91
-24.77
-28.07
-31.67
-35.12
-37.75
-38.84
-37.90
-34.89
-30.21
-24.55
-18.60
-12.74
-7.03
-1.30
4.59
10.53
16.16
21.09
25.08
28.17
30.56
32.46
33.82
34.45
34.13
32.92
31.17
29.37
27.94
26.96
26.20
25.36
24.23
22.86
21.53
20.53
20.03
19.98
20.23
20.58
20.79
20.69
20.05
18.69
16.57
13.86
10.96
8.29
6.19
4.64
3.41
2.11
0.42
-1.83
-4.72
-8.24
-12.38
-16.98
-21.69
-26.02
-29.45
-31.77
-33.22
-34.48
-36.32
-39.28
-43.30
-47.74
-51.55
-53.62
-53.21
-50.12
-44.76
-37.99
-30.80
-24.01
-18.07
-12.96
-8.45
-4.25
-0.17
3.74
7.44
10.88
14.11
17.08
19.51
20.97
21.14
20.04
18.29
16.83
16.54
17.79
20.26
23.14
25.54
26.88
27.06
26.35
25.13
23.63
22.00
20.21
18.25
16.20
14.09
11.99
9.88
7.73
5.51
3.25
1.00
-1.24
-3.50
-5.85
-8.31
-10.82
-13.31
-15.70
-18.07
-20.51
-23.10
-25.76
-28.32
-30.66
-32.78
-34.83
-36.92
-38.84
-40.09
-39.96
-37.94
-33.94
-28.38
-21.93
-15.28
-8.87
-2.87
2.63
7.61
12.00
15.80
19.08
21.96
24.47
26.51
27.89
28.47
28.33
27.73
26.99
26.27
25.47
24.30
22.49
20.01
17.17
14.40
12.13
10.53
9.49
8.78
8.27
7.90
7.69
7.63
7.54
7.24
6.67
6.06
5.78
6.24
7.47
9.12
10.56
11.18
10.69
9.12
6.75
3.87
0.65
-2.93
-6.88
-11.14
-15.55
-19.88
-23.98
-27.79
-31.30
-34.43
-36.95
-38.46
-38.58
-37.08
-34.00
-29.65
-24.52
-19.05
-13.68
-8.68
-4.21
-0.34
2.98
5.95
8.77
11.61
14.42
17.02
19.17
20.75
21.84
22.68
23.48
24.27
24.89
25.01
24.50
23.50
22.37
21.53
21.17
21.17
21.14
20.76
19.96
18.98
18.25
18.01
18.11
18.06
17.23
15.28
12.33
8.98
5.96
3.76
2.38
1.40
0.18
-1.71
-4.40
-7.58
-10.83
-13.70
-15.97
-17.74
-19.36
-21.37
-24.23
-28.16
-32.99
-38.21
-43.11
-47.08
-49.70
-50.81
-50.44
-48.61
-45.33
-40.60
-34.59
-27.66
-20.36
-13.28
-6.85
-1.27
3.53
7.77
11.71
15.50
19.14
22.45
25.18
27.17
28.40
29.06
29.45
29.73
29.83
29.55
28.69
27.32
25.87
24.87
24.67
25.14
25.69
25.64
24.56
22.56
20.18
18.04
16.49
15.44
14.44
13.03
10.99
8.46
5.88
3.75
2.41
1.86
1.76
1.54
0.62
-1.36
-4.35
-7.97
-11.69
-15.12
-18.19
-21.16
-24.45
-28.36
-32.96
-38.00
-43.00
-47.37
-50.54
-52.00
-51.40
-48.58
-43.65
-36.99
-29.19
-21.00
-13.12
-6.11
-0.18
4.80
9.18
13.47
18.03
22.92
27.82
32.10
34.98
35.81
34.23
30.40
24.94
18.79
13.02
8.47
5.60
4.40
4.55
5.53
6.94
8.46
9.90
11.10
11.90
12.16
11.89
11.16
10.16
8.93
7.44
5.51
2.99
-0.07
-3.51
-7.02
-10.32
-13.23
-15.74
-17.94
-19.96
-21.85
-23.70
-25.54
-27.45
-29.57
-32.01
-34.76
-37.58
-39.97
-41.26
-40.79
-38.18
-33.53
-27.34
-20.38
-13.39
-6.88
-1.14
3.78
7.93
11.37
14.18
16.54
18.67
20.77
22.97
25.20
27.27
28.92
29.91
30.12
29.55
28.40
26.94
25.42
24.08
22.90
21.79
20.55
19.08
17.46
15.90
14.62
13.74
13.18
12.68
11.96
10.76
8.96
6.54
3.58
0.23
-3.27
-6.66
-9.69
-12.27
-14.42
-16.34
-18.22
-20.14
-22.05
-23.84
-25.53
-27.32
-29.56
-32.54
-36.29
-40.44
-44.36
-47.27
-48.54
-47.86
-45.25
-40.93
-35.22
-28.47
-21.08
-13.50
-6.20
0.38
6.08
10.98
15.36
19.52
23.57
27.41
30.71
33.18
34.70
35.31
35.19
34.49
33.35
31.86
30.24
28.78
27.80
27.48
27.75
28.23
28.45
27.93
26.46
24.23
21.65
19.33
17.67
16.72
16.17
15.52
14.39
12.67
10.63
8.66
6.99
5.53
3.91
1.73
-1.24
-4.90
-8.90
-12.89
-16.68
-20.38
-24.24
-28.60
-33.62
-39.28
-45.31
-51.27
-56.56
-60.45
-62.29
-61.61
-58.33
-52.80
-45.76
-38.08
-30.40
-23.06
-16.07
-9.34
-2.88
3.11
8.31
12.57
16.00
18.86
21.41
23.74
25.60
26.69
26.85
26.24
25.30
24.47
23.95
23.64
23.26
22.60
21.71
20.80
20.01
19.29
18.31
16.65
14.08
10.64
6.71
2.72
-0.99
-4.32
-7.41
-10.56
-14.10
-18.25
-23.16
-28.81
-35.01
-41.41
-47.65
-53.44
-58.69
-63.59
-68.46
-73.61
-78.93
-83.71
-86.58
-85.88
-80.18
-68.83
-52.19
-31.50
-8.40
15.67
39.66
62.84
84.65
104.41
121.40
135.05
145.08
151.41
153.92
152.30
146.14
135.37
120.66
103.53
86.02
69.88
55.94
43.86
32.47
20.45
7.11
-7.30
-21.58
-33.95
-42.69
-46.59
-45.31
-39.39
-29.88
-17.93
-4.35
10.38
25.87
41.33
55.31
65.84
71.07
70.00
62.97
51.50
37.54
22.63
7.49
-7.90
-23.70
-39.68
-54.91
-68.15
-78.37
-85.26
-89.36
-91.67
-93.18
-94.39
-95.20
-95.03
-93.24
-89.38
-83.34
-75.45
-66.24
-56.38
-46.51
-37.17
-28.71
-21.34
-15.11
-10.06
-6.06
-2.75
0.32
3.68
7.66
12.14
16.58
20.22
22.49
23.24
22.91
22.17
21.54
21.18
20.86
20.24
19.25
18.16
17.46
17.54
18.44
19.80
21.17
22.18
22.71
22.83
22.62
21.99
20.72
18.57
15.47
11.58
7.33
3.18
-0.44
-3.37
-5.66
-7.61
-9.58
-11.89
-14.66
-17.84
-21.23
-24.65
-28.04
-31.49
-35.19
-39.28
-43.63
-47.79
-51.06
-52.69
-52.17
-49.44
-44.89
-39.19
-32.93
-26.47
-19.87
-13.04
-6.01
0.94
7.37
12.87
17.26
20.72
23.59
26.14
28.43
30.27
31.39
31.67
31.27
30.62
30.15
30.15
30.55
31.05
31.30
31.04
30.33
29.41
28.55
27.90
27.29
26.40
24.96
22.96
20.74
18.72
17.14
15.89
14.52
12.45
9.42
5.70
1.95
-1.03
-2.74
-3.22
-3.09
-3.20
-4.29
-6.71
-10.35
-14.77
-19.43
-23.86
-27.78
-31.16
-34.10
-36.79
-39.42
-42.04
-44.57
-46.73
-48.10
-48.21
-46.69
-43.42
-38.53
-32.33
-25.28
-17.89
-10.64
-3.99
1.74
6.41
10.11
13.11
15.73
18.26
20.84
23.42
25.82
27.78
29.14
29.81
29.83
29.33
28.52
27.58
26.70
26.03
25.66
25.65
25.96
26.47
26.88
26.89
26.22
24.76
22.63
20.09
17.40
14.65
11.73
8.48
4.79
0.78
-3.22
-6.82
-9.73
-11.88
-13.41
-14.56
-15.57
-16.68
-18.12
-20.09
-22.72
-26.09
-30.11
-34.57
-39.12
-43.20
-46.07
-46.93
-45.08
-40.34
-33.17
-24.65
-16.05
-8.34
-1.85
3.65
8.72
13.72
18.61
22.98
26.37
28.53
29.60
30.03
30.40
31.16
32.54
34.45
36.70
38.93
40.87
42.27
42.97
42.92
42.13
40.75
38.98
37.07
35.24
33.58
31.98
30.22
27.96
24.99
21.30
17.09
12.79
8.83
5.57
3.13
1.32
-0.29
-2.19
-4.74
-8.06
-11.96
-16.08
-19.98
-23.34
-26.05
-28.23
-30.18
-32.28
-34.85
-38.08
-41.99
-46.38
-50.90
-55.00
-57.98
-59.08
-57.65
-53.37
-46.47
-37.69
-28.11
-18.81
-10.53
-3.45
2.63
8.09
13.26
18.22
22.84
26.91
30.24
32.70
34.22
34.80
34.55
33.68
32.49
31.35
30.55
30.21
30.26
30.48
30.63
30.54
30.19
29.64
29.02
28.46
28.12
28.08
28.28
28.52
28.34
27.21
24.76
21.00
16.33
11.43
7.00
3.39
0.56
-1.88
-4.41
-7.29
-10.53
-13.90
-17.06
-19.79
-22.04
-23.84
-25.26
-26.30
-26.96
-27.38
-27.92
-29.13
-31.55
-35.41
-40.44
-45.76
-50.26
-52.89
-53.07
-50.81
-46.57
-41.05
-34.88
-28.49
-22.12
-15.92
-10.06
-4.78
-0.25
3.49
6.62
9.49
12.44
15.65
18.97
22.08
24.60
26.34
27.32
27.75
27.88
27.86
27.77
27.56
27.17
26.60
25.93
25.28
24.76
24.44
24.25
23.99
23.43
22.39
20.77
18.69
16.28
13.67
10.91
7.99
4.89
1.73
-1.34
-4.19
-6.78
-9.17
-11.48
-13.77
-16.03
-18.17
-20.15
-22.01
-23.83
-25.69
-27.59
-29.54
-31.59
-33.89
-36.50
-39.28
-41.77
-43.23
-42.93
-40.48
-35.96
-29.92
-23.10
-16.16
-9.52
-3.33
2.36
7.51
11.92
15.44
17.96
19.60
20.60
21.31
21.98
22.69
23.31
23.64
23.47
22.73
21.51
20.07
18.69
17.57
16.78
16.24
15.78
15.25
14.65
14.07
13.69
13.63
13.84
14.10
14.07
13.42
11.94
9.65
6.76
3.56
0.31
-2.89
-6.09
-9.41
-12.90
-16.43
-19.73
-22.46
-24.44
-25.71
-26.58
-27.46
-28.74
-30.63
-33.19
-36.29
-39.62
-42.71
-44.90
-45.50
-43.97
-40.11
-34.19
-26.87
-19.00
-11.34
-4.41
1.56
6.59
10.84
14.49
17.70
20.57
23.15
25.45
27.47
29.16
30.55
31.66
32.56
33.27
33.81
34.10
34.01
33.52
32.70
31.71
30.75
29.89
29.06
28.14
27.07
25.89
24.75
23.81
23.02
22.17
20.93
19.03
16.42
13.25
9.78
6.29
2.93
-0.28
-3.38
-6.45
-9.53
-12.66
-15.82
-18.92
-21.86
-24.58
-27.13
-29.64
-32.30
-35.24
-38.46
-41.86
-45.34
-48.72
-51.78
-54.09
-55.13
-54.41
-51.69
-47.09
-41.12
-34.43
-27.54
-20.73
-14.11
-7.69
-1.54
4.23
9.46
14.07
18.03
21.31
23.90
25.79
27.08
28.03
28.94
30.04
31.36
32.67
33.56
33.66
32.82
31.24
29.39
27.73
26.52
25.76
25.25
24.77
24.28
23.82
23.43
22.87
21.75
19.66
16.48
12.47
8.19
4.23
0.87
-1.98
-4.64
-7.41
-10.36
-13.35
-16.18
-18.75
-21.09
-23.35
-25.65
-28.03
-30.46
-33.00
-35.77
-38.99
-42.73
-46.84
-50.88
-54.12
-55.89
-55.72
-53.44
-49.22
-43.44
-36.58
-29.13
-21.50
-13.98
-6.73
0.18
6.71
12.76
18.08
22.34
25.27
26.80
27.20
27.01
26.80
26.92
27.37
27.81
27.83
27.22
26.13
25.00
24.25
24.08
24.35
24.64
24.59
24.12
23.35
22.62
22.11
21.77
21.34
20.47
18.95
16.87
14.50
12.14
9.88
7.50
4.60
0.87
-3.74
-8.84
-13.75
-17.83
-20.71
-22.52
-23.81
-25.29
-27.57
-30.99
-35.51
-40.74
-46.02
-50.53
-53.54
-54.45
-53.12
-49.81
-45.16
-39.83
-34.35
-28.92
-23.54
-18.10
-12.62
-7.29
-2.27
2.34
6.61
10.65
14.48
18.00
20.96
23.26
24.92
26.18
27.34
28.61
29.99
31.32
32.43
33.22
33.68
33.84
33.71
33.25
32.36
31.09
29.64
28.28
27.19
26.34
25.43
24.03
21.76
18.50
14.44
9.95
5.47
1.25
-2.60
-6.19
-9.71
-13.35
-17.33
-21.80
-26.89
-32.64
-38.94
-45.47
-51.87
-57.72
-62.65
-66.29
-68.23
-68.01
-65.12
-59.23
-50.40
-39.12
-26.35
-13.24
-0.89
9.80
18.35
24.67
28.95
31.62
33.24
34.36
35.45
36.79
38.47
40.36
42.22
43.72
44.66
44.94
44.70
44.21
43.74
43.36
42.96
42.29
41.12
39.31
36.91
34.04
30.83
27.41
23.88
20.38
17.07
14.10
11.59
9.58
8.07
6.96
6.03
4.93
3.31
0.81
-2.80
-7.57
-13.39
-19.99
-27.02
-34.07
-40.61
-46.20
-50.50
-53.46
-55.37
-56.71
-57.94
-59.30
-60.62
-61.46
-61.18
-59.21
-55.25
-49.33
-41.89
-33.64
-25.36
-17.65
-10.79
-4.72
0.81
6.05
11.03
15.62
19.61
22.84
25.30
27.01
28.03
28.34
27.94
26.93
25.54
24.08
22.81
21.85
21.13
20.56
20.10
19.89
20.18
21.26
23.24
26.06
29.39
32.85
36.00
38.52
40.24
41.08
40.95
39.59
36.64
31.68
24.47
15.21
4.59
-6.25
-16.02
-23.65
-28.58
-30.97
-31.60
-31.51
-31.75
-32.94
-35.20
-38.16
-41.15
-43.45
-44.46
-43.81
-41.39
-37.55
-33.08
-28.99
-26.30
-25.44
-26.12
-27.29
-27.65
-26.26
-22.90
-18.16
-13.07
-8.66
-5.49
-3.61
-2.54
-1.58
0.01
2.73
6.70
11.64
16.93
21.91
26.10
29.36
31.77
33.52
34.72
35.43
35.70
35.57
35.16
34.45
33.25
31.23
28.08
23.65
17.99
11.38
4.34
-2.56
-8.73
-13.76
-17.49
-20.23
-22.54
-25.08
-28.28
-32.09
-35.98
-39.14
-40.86
-40.78
-39.04
-36.11
-32.48
-28.47
-24.03
-18.97
-13.09
-6.45
0.62
7.56
13.86
19.16
23.39
26.69
29.31
31.47
33.22
34.50
35.24
35.43
35.16
34.60
33.98
33.41
32.95
32.57
32.18
31.71
31.13
30.41
29.54
28.42
26.92
24.91
22.30
19.16
15.72
12.27
9.07
6.20
3.47
0.55
-2.88
-6.90
-11.34
-15.86
-20.21
-24.33
-28.44
-32.81
-37.58
-42.49
-46.96
-50.17
-51.36
-50.07
-46.34
-40.64
-33.73
-26.37
-19.08
-12.07
-5.31
1.32
7.83
14.08
19.79
24.74
28.85
32.25
35.12
37.59
39.63
41.05
41.68
41.37
40.23
38.49
36.51
34.55
32.71
30.91
29.02
26.95
24.80
22.80
21.21
20.16
19.52
19.03
18.39
17.36
15.83
13.69
10.87
7.25
2.83
-2.23
-7.52
-12.55
-16.87
-20.24
-22.65
-24.24
-25.29
-26.10
-27.09
-28.64
-31.06
-34.46
-38.68
-43.34
-47.96
-52.04
-55.02
-56.29
-55.26
-51.60
-45.45
-37.53
-29.02
-21.04
-14.28
-8.75
-3.90
0.96
6.25
11.79
17.03
21.24
23.99
25.22
25.29
24.72
23.93
23.21
22.61
22.13
21.76
21.53
21.47
21.56
21.64
21.50
20.90
19.76
18.18
16.45
14.89
13.70
12.83
11.99
10.77
8.89
6.25
3.00
-0.62
-4.36
-8.03
-11.50
-14.64
-17.34
-19.60
-21.57
-23.54
-25.88
-28.74
-32.05
-35.48
-38.60
-41.00
-42.33
-42.29
-40.61
-37.14
-31.90
-25.27
-17.90
-10.58
-3.93
1.73
6.53
10.85
15.13
19.61
24.18
28.42
31.79
33.83
34.34
33.49
31.75
29.70
27.81
26.34
25.33
24.76
24.61
24.94
25.72
26.75
27.65
27.95
27.34
25.75
23.40
20.66
17.83
15.04
12.22
9.28
6.20
3.11
0.23
-2.30
-4.46
-6.39
-8.33
-10.50
-13.03
-15.92
-19.04
-22.11
-24.88
-27.23
-29.23
-31.22
-33.59
-36.62
-40.25
-44.03
-47.23
-49.04
-48.84
-46.41
-41.88
-35.73
-28.56
-21.00
-13.59
-6.71
-0.63
4.57
8.92
12.63
15.99
19.30
22.73
26.21
29.48
32.13
33.83
34.43
34.01
32.86
31.35
29.83
28.56
27.73
27.43
27.69
28.37
29.22
29.90
30.04
29.41
27.93
25.78
23.27
20.73
18.34
16.08
13.75
11.08
7.94
4.49
1.06
-1.88
-4.01
-5.20
-5.57
-5.44
-5.20
-5.27
-6.04
-7.80
-10.64
-14.40
-18.68
-22.94
-26.67
-29.65
-31.88
-33.67
-35.41
-37.50
-40.18
-43.48
-47.18
-50.72
-53.29
-53.97
-52.10
-47.51
-40.64
-32.37
-23.72
-15.44
-7.94
-1.39
4.18
8.67
12.06
14.45
16.21
17.82
19.70
21.93
24.22
26.15
27.32
27.66
27.33
26.64
25.80
24.87
23.76
22.42
20.86
19.24
17.72
16.37
15.15
13.92
12.59
11.17
9.74
8.37
7.05
5.70
4.16
2.37
0.38
-1.62
-3.42
-4.87
-6.02
-7.03
-8.13
-9.49
-11.11
-12.92
-14.79
-16.64
-18.42
-20.11
-21.69
-23.20
-24.76
-26.64
-29.05
-32.12
-35.64
-39.11
-41.79
-42.93
-42.06
-39.04
-34.14
-27.93
-21.09
-14.22
-7.76
-1.89
3.39
8.16
12.47
16.31
19.55
22.15
24.15
25.60
26.61
27.17
27.17
26.51
25.22
23.50
21.75
20.43
19.85
20.06
20.83
21.75
22.39
22.42
21.74
20.45
18.80
17.07
15.41
13.81
12.15
10.23
7.96
5.40
2.74
0.13
-2.40
-4.92
-7.55
-10.28
-12.90
-15.13
-16.80
-18.01
-19.21
-20.91
-23.45
-26.80
-30.58
-34.29
-37.54
-40.30
-42.80
-45.31
-47.79
-49.83
-50.74
-49.80
-46.63
-41.36
-34.54
-26.95
-19.24
-11.81
-4.82
1.76
7.92
13.55
18.50
22.59
25.72
27.95
29.42
30.30
30.76
30.89
30.74
30.31
29.65
28.90
28.26
27.90
27.91
28.21
28.53
28.56
28.01
26.70
24.70
22.21
19.52
16.87
14.39
12.02
9.69
7.32
4.95
2.75
0.94
-0.37
-1.19
-1.71
-2.21
-2.94
-4.10
-5.78
-8.01
-10.75
-13.92
-17.30
-20.60
-23.54
-25.89
-27.66
-29.09
-30.58
-32.61
-35.48
-39.21
-43.34
-47.08
-49.51
-49.85
-47.80
-43.56
-37.73
-31.01
-23.94
-16.85
-9.87
-3.10
3.29
9.09
14.09
18.29
21.88
25.14
28.31
31.41
34.16
36.12
36.97
36.69
35.61
34.28
33.27
32.86
32.99
33.37
33.60
33.35
32.46
30.91
28.73
26.08
23.11
20.06
17.16
14.54
12.24
10.24
8.47
6.87
5.30
3.63
1.66
-0.66
-3.22
-5.81
-8.24
-10.45
-12.63
-15.02
-17.83
-20.98
-24.21
-27.14
-29.53
-31.37
-32.89
-34.44
-36.28
-38.54
-41.22
-44.20
-47.23
-49.86
-51.53
-51.68
-49.89
-46.02
-40.28
-33.04
-24.73
-15.80
-6.69
2.08
9.96
16.45
21.36
24.87
27.47
29.73
31.97
34.17
35.98
37.03
37.17
36.58
35.69
34.84
34.23
33.73
33.09
32.08
30.63
28.80
26.67
24.27
21.45
18.10
14.22
10.05
5.94
2.25
-0.77
-3.01
-4.50
-5.34
-5.69
-5.83
-6.15
-7.03
-8.69
-11.11
-14.03
-17.14
-20.28
-23.52
-27.09
-31.21
-35.95
-41.17
-46.56
-51.68
-55.93
-58.63
-59.12
-56.96
-52.18
-45.29
-37.20
-28.89
-21.05
-13.87
-7.08
-0.14
7.46
15.86
24.77
33.41
40.89
46.45
49.76
50.99
50.70
49.51
47.83
45.67
42.78
38.87
33.92
28.22
22.27
16.51
11.03
5.50
-0.54
-7.51
-15.50
-24.29
-33.65
-43.47
-53.52
-63.04
-70.37
-73.24
-69.77
-59.60
-44.45
-27.64
-12.62
-1.49
5.80
10.95
15.99
22.00
28.49
33.90
36.60
35.72
31.53
25.06
17.59
10.32
4.22
0.03
-1.83
-1.25
1.50
5.86
11.16
16.78
22.26
27.21
31.23
33.95
35.14
34.94
33.89
32.69
31.87
31.48
31.07
30.05
28.17
25.76
23.64
22.62
23.01
24.43
25.94
26.53
25.65
23.36
20.29
17.29
15.11
14.07
14.00
14.37
14.39
13.37
10.94
7.14
2.42
-2.56
-7.24
-11.35
-14.93
-18.26
-21.68
-25.41
-29.48
-33.83
-38.39
-43.16
-48.14
-53.22
-58.01
-61.87
-64.06
-63.89
-61.09
-55.82
-48.67
-40.47
-32.01
-23.87
-16.34
-9.43
-3.04
3.00
8.80
14.34
19.48
24.05
27.87
30.81
32.73
33.54
33.17
31.71
29.43
26.77
24.19
22.03
20.27
18.68
16.91
14.75
12.29
9.82
7.66
5.91
4.45
2.93
1.03
-1.29
-3.84
-6.22
-8.10
-9.36
-10.27
-11.37
-13.26
-16.31
-20.48
-25.29
-30.03
-34.01
-36.76
-38.03
-37.70
-35.64
-31.73
-25.96
-18.58
-10.18
-1.64
6.22
12.87
18.23
22.63
26.60
30.56
34.59
38.48
41.72
43.80
44.37
43.44
41.32
38.50
35.56
32.90
30.74
29.05
27.68
26.38
24.95
23.20
21.04
18.34
15.07
11.23
6.92
2.31
-2.31
-6.67
-10.52
-13.78
-16.55
-19.07
-21.65
-24.56
-27.93
-31.76
-35.98
-40.45
-45.00
-49.28
-52.77
-54.78
-54.67
-52.10
-47.12
-40.27
-32.36
-24.26
-16.62
-9.84
-4.03
0.89
5.04
8.52
11.27
13.19
14.20
14.33
13.76
12.78
11.73
10.81
10.09
9.47
8.87
8.31
8.01
8.34
9.65
12.12
15.59
19.57
23.36
26.33
28.12
28.78
28.59
27.97
27.05
25.75
23.81
21.02
17.37
13.15
8.71
4.36
0.18
-4.00
-8.46
-13.45
-19.04
-24.99
-30.73
-35.45
-38.20
-38.23
-35.31
-29.81
-22.65
-14.96
-7.66
-1.22
4.32
9.10
13.30
16.98
20.21
23.13
25.93
28.75
31.53
33.95
35.60
36.20
35.76
34.58
33.05
31.48
29.96
28.43
26.83
25.22
23.76
22.64
21.95
21.58
21.32
20.84
19.85
18.19
15.85
13.05
10.16
7.59
5.54
3.92
2.34
0.32
-2.43
-5.90
-9.77
-13.64
-17.30
-20.73
-24.06
-27.40
-30.65
-33.70
-36.56
-39.45
-42.75
-46.69
-51.03
-55.00
-57.48
-57.45
-54.39
-48.48
-40.50
-31.55
-22.63
-14.45
-7.28
-1.04
4.55
9.77
14.73
19.32
23.29
26.38
28.48
29.71
30.40
30.85
31.20
31.38
31.23
30.68
29.84
29.00
28.42
28.11
27.83
27.18
25.88
24.01
21.90
20.08
18.95
18.62
18.81
19.01
18.60
17.14
14.55
11.12
7.40
3.94
1.08
-1.26
-3.37
-5.65
-8.30
-11.27
-14.28
-17.12
-19.68
-22.13
-24.77
-27.84
-31.43
-35.37
-39.34
-42.85
-45.41
-46.54
-45.86
-43.21
-38.69
-32.68
-25.73
-18.41
-11.21
-4.44
1.72
7.22
12.04
16.27
20.03
23.42
26.49
29.18
31.32
32.78
33.51
33.60
33.22
32.58
31.78
30.92
30.15
29.65
29.62
30.06
30.69
31.01
30.51
28.99
26.68
24.19
22.15
20.85
20.07
19.17
17.38
14.25
9.82
4.64
-0.55
-5.16
-8.90
-11.91
-14.54
-17.14
-19.85
-22.55
-25.00
-26.94
-28.29
-29.19
-29.92
-30.74
-31.86
-33.35
-35.25
-37.63
-40.57
-43.98
-47.51
-50.39
-51.61
-50.27
-45.99
-39.16
-30.80
-22.18
-14.37
-7.82
-2.44
2.22
6.56
10.73
14.60
17.91
20.45
22.13
23.05
23.36
23.21
22.75
22.09
21.26
20.28
19.18
18.03
16.97
16.17
15.68
15.34
14.82
13.74
11.88
9.29
6.37
3.59
1.34
-0.29
-1.46
-2.58
-3.95
-5.77
-7.95
-10.28
-12.46
-14.28
-15.68
-16.82
-17.96
-19.40
-21.28
-23.56
-25.95
-28.12
-29.89
-31.34
-32.72
-34.38
-36.45
-38.69
-40.46
-40.97
-39.55
-35.93
-30.32
-23.31
-15.61
-7.85
-0.44
6.40
12.57
17.92
22.33
25.64
27.84
29.06
29.62
29.85
29.96
29.96
29.68
28.95
27.74
26.30
24.99
24.24
24.18
24.63
25.17
25.30
24.75
23.53
21.88
20.10
18.37
16.69
14.90
12.88
10.57
8.03
5.38
2.79
0.37
-1.85
-3.92
-6.08
-8.63
-11.75
-15.43
-19.36
-23.09
-26.28
-28.96
-31.52
-34.49
-38.19
-42.46
-46.71
-50.10
-51.94
-51.86
-49.82
-46.05
-40.81
-34.35
-26.94
-18.95
-10.88
-3.29
3.35
8.84
13.36
17.26
20.99
24.80
28.58
31.90
34.14
34.83
33.84
31.52
28.50
25.48
23.02
21.35
20.42
20.02
19.87
19.75
19.53
19.13
18.55
17.86
17.13
16.49
16.05
15.83
15.76
15.59
14.92
13.38
10.80
7.33
3.42
-0.39
-3.83
-6.99
-10.33
-14.38
-19.39
-25.04
-30.57
-35.05
-37.75
-38.38
-37.16
-34.66
-31.60
-28.75
-26.77
-26.21
-27.31
-29.86
-33.27
-36.58
-38.74
-38.89
-36.60
-31.99
-25.62
-18.33
-11.03
-4.39
1.30
6.17
10.65
15.21
20.15
25.38
30.47
34.85
38.02
39.72
40.02
39.14
37.38
34.93
31.94
28.62
25.34
22.63
21.04
20.79
21.70
23.05
23.99
23.79
22.25
19.68
16.68
13.77
11.16
8.73
6.22
3.43
0.44
-2.55
-5.28
-7.58
-9.38
-10.71
-11.67
-12.38
-13.09
-14.11
-15.70
-18.03
-21.03
-24.46
-28.05
-31.55
-34.78
-37.63
-40.04
-41.92
-43.25
-44.03
-44.25
-43.82
-42.54
-40.14
-36.35
-31.06
-24.39
-16.75
-8.77
-1.17
5.47
10.81
14.92
18.15
20.98
23.80
26.71
29.53
31.88
33.38
33.80
33.06
31.27
28.67
25.56
22.31
19.31
16.88
15.25
14.43
14.31
14.66
15.15
15.48
15.45
15.03
14.37
13.61
12.81
11.75
10.05
7.28
3.30
-1.64
-6.94
-11.98
-16.36
-20.12
-23.55
-26.98
-30.55
-34.10
-37.39
-40.30
-43.08
-46.16
-49.95
-54.39
-58.71
-61.66
-61.83
-58.44
-51.60
-42.44
-32.52
-23.23
-15.27
-8.50
-2.42
3.48
9.31
14.80
19.55
23.39
26.47
29.11
31.65
34.14
36.44
38.29
39.49
40.03
40.00
39.63
39.12
38.61
38.02
37.07
35.42
32.84
29.40
25.57
21.98
19.14
17.22
15.97
14.92
13.66
12.03
10.12
8.04
5.77
3.07
-0.30
-4.43
-9.06
-13.65
-17.59
-20.52
-22.46
-23.88
-25.54
-28.18
-32.22
-37.59
-43.66
-49.45
-53.91
-56.18
-55.84
-52.89
-47.69
-40.82
-32.93
-24.67
-16.59
-9.03
-2.16
4.05
9.71
14.90
19.60
23.62
26.81
29.06
30.45
31.13
31.27
30.94
30.20
29.12
27.84
26.66
25.93
25.88
26.46
27.41
28.30
28.75
28.65
28.12
27.42
26.74
26.05
25.11
23.58
21.27
18.31
15.13
12.21
9.88
8.17
6.82
5.39
3.55
1.09
-1.99
-5.60
-9.58
-13.76
-17.91
-21.79
-25.17
-27.96
-30.35
-32.71
-35.52
-39.06
-43.23
-47.40
-50.57
-51.69
-50.06
-45.62
-38.94
-30.98
-22.75
-14.93
-7.88
-1.65
3.86
8.77
13.10
16.93
20.29
23.27
25.91
28.18
29.99
31.22
31.82
31.83
31.41
30.78
30.16
29.69
29.39
29.21
29.04
28.74
28.17
27.21
25.72
23.71
21.34
18.86
16.54
14.54
12.78
11.01
8.99
6.61
4.00
1.36
-1.17
-3.58
-6.10
-8.93
-12.10
-15.47
-18.71
-21.64
-24.28
-26.92
-29.97
-33.77
-38.33
-43.40
-48.35
-52.43
-54.93
-55.24
-53.09
-48.50
-41.86
-33.79
-25.03
-16.26
-8.02
-0.57
6.00
11.76
16.85
21.41
25.55
29.28
32.48
35.00
36.69
37.50
37.50
36.85
35.70
34.14
32.20
29.95
27.59
25.41
23.72
22.72
22.41
22.57
22.80
22.64
21.72
19.86
17.17
14.03
10.93
8.27
6.14
4.30
2.30
-0.25
-3.46
-7.12
-10.85
-14.27
-17.29
-20.00
-22.65
-25.48
-28.66
-32.33
-36.55
-41.39
-46.77
-52.36
-57.45
-61.04
-62.06
-59.69
-53.79
-44.97
-34.47
-23.73
-13.99
-5.91
0.38
5.20
8.95
11.98
14.53
16.72
18.73
20.75
22.95
25.35
27.84
30.17
32.05
33.32
33.99
34.25
34.38
34.62
35.07
35.59
35.89
35.68
34.77
33.27
31.38
29.41
27.53
25.72
23.89
21.90
19.65
17.11
14.36
11.51
8.72
6.06
3.49
0.80
-2.32
-6.10
-10.53
-15.35
-20.04
-24.17
-27.59
-30.53
-33.49
-36.97
-41.26
-46.33
-51.84
-57.26
-61.91
-65.08
-66.07
-64.32
-59.61
-52.13
-42.50
-31.63
-20.53
-10.04
-0.72
7.21
13.81
19.29
23.96
28.02
31.57
34.60
37.05
38.87
40.07
40.67
40.75
40.36
39.59
38.57
37.41
36.25
35.17
34.21
33.28
32.28
31.01
29.31
27.10
24.41
21.43
18.48
15.89
13.90
12.51
11.57
10.75
9.77
8.47
6.82
4.89
2.77
0.47
-2.04
-4.76
-7.64
-10.55
-13.34
-15.97
-18.52
-21.26
-24.44
-28.20
-32.45
-37.01
-41.65
-46.23
-50.73
-55.02
-58.74
-61.23
-61.68
-59.48
-54.54
-47.33
-38.78
-29.85
-21.26
-13.28
-5.89
1.09
7.78
14.09
19.83
24.73
28.62
31.45
33.30
34.33
34.71
34.66
34.29
33.70
32.95
32.03
30.95
29.69
28.24
26.63
24.96
23.29
21.68
20.07
18.40
16.62
14.72
12.86
11.14
9.66
8.38
7.21
6.06
4.90
3.71
2.44
0.89
-1.23
-4.13
-7.84
-12.10
-16.47
-20.51
-23.98
-26.98
-29.85
-33.05
-36.91
-41.44
-46.30
-50.75
-53.87
-54.83
-53.13
-48.75
-42.21
-34.30
-25.85
-17.45
-9.39
-1.75
5.43
12.09
18.09
23.35
27.86
31.73
35.06
37.79
39.68
40.46
39.98
38.39
36.19
34.04
32.58
32.08
32.42
33.14
33.67
33.58
32.72
31.19
29.24
27.06
24.77
22.42
20.06
17.79
15.71
13.78
11.84
9.61
6.84
3.48
-0.25
-3.93
-7.19
-9.84
-12.00
-14.05
-16.45
-19.59
-23.53
-28.12
-32.94
-37.54
-41.64
-45.22
-48.52
-51.89
-55.57
-59.50
-63.26
-66.13
-67.29
-66.07
-62.14
-55.67
-47.29
-37.89
-28.38
-19.51
-11.77
-5.28
0.06
4.58
8.78
13.27
18.68
25.48
33.72
42.90
52.08
60.02
65.76
68.82
69.33
67.93
65.39
62.39
59.30
56.15
52.85
49.33
45.65
42.05
38.78
36.00
33.65
31.56
29.59
27.64
25.80
24.19
22.80
21.43
19.76
17.50
14.51
10.95
7.08
3.26
-0.34
-3.74
-7.11
-10.70
-14.68
-19.11
-23.86
-28.68
-33.24
-37.32
-40.89
-44.15
-47.44
-51.05
-55.03
-59.04
-62.46
-64.51
-64.49
-62.02
-57.07
-49.99
-41.41
-32.00
-22.37
-13.05
-4.46
3.04
9.19
13.90
17.25
19.54
21.10
22.13
22.66
22.55
21.73
20.34
18.78
17.54
16.95
17.07
17.63
18.34
18.94
19.41
19.77
20.01
19.95
19.42
18.28
16.60
14.61
12.55
10.62
8.80
7.00
5.06
2.91
0.50
-2.15
-5.03
-8.11
-11.34
-14.65
-18.00
-21.31
-24.49
-27.42
-29.93
-31.94
-33.58
-35.19
-37.26
-40.22
-44.11
-48.58
-52.85
-55.97
-57.09
-55.72
-51.80
-45.70
-38.06
-29.58
-20.88
-12.39
-4.39
3.01
9.75
15.86
21.37
26.35
30.76
34.48
37.29
38.98
39.48
38.94
37.68
36.12
34.61
33.32
32.24
31.30
30.37
29.31
27.99
26.33
24.29
22.02
19.85
18.17
17.26
17.10
17.31
17.34
16.60
14.80
12.00
8.58
5.03
1.81
-0.81
-2.79
-4.31
-5.67
-7.26
-9.42
-12.40
-16.26
-20.77
-25.54
-30.11
-34.10
-37.41
-40.18
-42.80
-45.67
-49.09
-53.00
-56.96
-60.16
-61.63
-60.63
-56.81
-50.40
-42.09
-32.85
-23.62
-15.01
-7.28
-0.35
6.04
12.04
17.64
22.67
26.94
30.40
33.16
35.40
37.26
38.70
39.57
39.73
39.20
38.22
37.21
36.54
36.37
36.64
37.10
37.50
37.60
37.35
36.75
35.85
34.67
33.17
31.33
29.16
26.66
23.91
20.97
17.91
14.78
11.71
8.89
6.50
4.60
3.07
1.56
-0.38
-3.18
-7.08
-12.02
-17.71
-23.57
-29.00
-33.46
-36.66
-38.69
-40.01
-41.24
-42.97
-45.50
-48.65
-51.84
-54.20
-54.86
-53.28
-49.29
-43.19
-35.59
-27.29
-18.99
-11.16
-4.01
2.47
8.33
13.47
17.66
20.67
22.40
23.04
22.97
22.57
22.09
21.57
21.00
20.44
20.11
20.27
21.04
22.26
23.52
24.35
24.51
24.12
23.47
22.96
22.78
22.84
22.86
22.55
21.68
20.24
18.34
16.13
13.77
11.30
8.71
5.99
3.11
0.12
-2.97
-6.11
-9.33
-12.63
-15.91
-19.01
-21.76
-24.15
-26.41
-28.94
-32.16
-36.37
-41.51
-47.23
-52.87
-57.61
-60.60
-61.10
-58.66
-53.29
-45.48
-36.08
-26.08
-16.29
-7.14
1.21
8.72
15.30
20.72
24.74
27.45
29.15
30.37
31.56
32.83
33.94
34.45
34.05
32.76
31.05
29.51
28.63
28.46
28.70
28.82
28.44
27.46
26.03
24.44
22.80
21.01
18.81
16.00
12.59
8.91
5.39
2.43
0.11
-1.83
-3.84
-6.36
-9.55
-13.24
-16.96
-20.28
-22.92
-25.00
-26.97
-29.37
-32.68
-37.06
-42.31
-47.92
-53.25
-57.59
-60.35
-61.01
-59.25
-55.00
-48.51
-40.42
-31.60
-22.97
-15.16
-8.37
-2.39
3.19
8.74
14.38
20.00
25.34
30.13
34.16
37.28
39.41
40.48
40.55
39.79
38.47
36.86
35.19
33.61
32.24
31.14
30.32
29.67
29.02
28.21
27.13
25.84
24.47
23.13
21.80
20.35
18.57
16.30
13.49
10.28
6.87
3.53
0.48
-2.11
-4.21
-5.92
-7.48
-9.15
-11.14
-13.56
-16.46
-19.85
-23.79
-28.34
-33.47
-39.07
-44.88
-50.49
-55.44
-59.23
-61.40
-61.54
-59.44
-55.13
-48.83
-41.02
-32.28
-23.26
-14.50
-6.42
0.71
6.87
12.14
16.77
21.02
25.08
28.95
32.49
35.49
37.76
39.21
39.90
39.96
39.50
38.66
37.52
36.25
35.03
34.11
33.69
33.82
34.31
34.77
34.70
33.71
31.71
28.91
25.73
22.55
19.45
16.24
12.57
8.22
3.31
-1.75
-6.40
-10.20
-13.00
-14.95
-16.37
-17.53
-18.53
-19.33
-19.87
-20.22
-20.69
-21.75
-23.85
-27.22
-31.74
-36.93
-42.20
-46.99
-50.97
-53.98
-55.85
-56.32
-54.99
-51.47
-45.65
-37.87
-28.87
-19.63
-11.00
-3.47
2.88
8.34
13.23
17.81
22.13
26.09
29.54
32.38
34.59
36.21
37.20
37.55
37.22
36.29
34.91
33.36
31.92
30.72
29.80
29.09
28.49
27.88
27.12
26.06
24.61
22.83
20.92
19.21
17.96
17.20
16.63
15.79
14.20
11.63
8.15
4.07
-0.22
-4.43
-8.51
-12.54
-16.70
-21.08
-25.66
-30.34
-35.10
-40.01
-45.35
-51.29
-57.75
-64.07
-69.17
-71.77
-70.95
-66.48
-59.00
-49.69
-39.87
-30.52
-22.07
-14.52
-7.64
-1.16
4.96
10.68
15.96
20.79
25.25
29.36
33.08
36.18
38.36
39.36
39.09
37.73
35.66
33.38
31.40
30.06
29.44
29.44
29.81
30.35
30.93
31.51
32.06
32.51
32.65
32.20
30.90
28.64
25.50
21.78
17.86
14.12
10.73
7.69
4.84
1.93
-1.19
-4.59
-8.21
-11.92
-15.55
-19.01
-22.17
-24.96
-27.32
-29.27
-30.99
-32.78
-35.10
-38.36
-42.75
-48.04
-53.43
-57.72
-59.57
-57.99
-52.73
-44.39
-34.23
-23.67
-13.79
-5.08
2.52
9.31
15.50
21.12
26.06
30.20
33.52
36.00
37.61
38.27
37.96
36.80
35.07
33.13
31.30
29.77
28.63
28.02
28.08
28.88
30.27
31.85
33.09
33.56
33.20
32.24
31.05
29.87
28.65
27.10
24.90
21.85
18.04
13.68
9.06
4.38
-0.18
-4.47
-8.41
-12.02
-15.42
-18.92
-22.82
-27.29
-32.24
-37.32
-42.01
-45.91
-48.93
-51.40
-53.89
-56.94
-60.77
-65.03
-68.88
-71.27
-71.27
-68.37
-62.69
-54.81
-45.60
-35.93
-26.45
-17.59
-9.52
-2.31
4.00
9.40
13.89
17.57
20.65
23.36
25.86
28.18
30.16
31.54
32.09
31.78
30.82
29.62
28.75
28.60
29.23
30.36
31.41
31.74
30.94
28.95
26.11
22.99
20.12
17.82
16.17
14.97
13.89
12.56
10.66
8.01
4.57
0.52
-3.79
-8.04
-12.01
-15.67
-19.16
-22.72
-26.55
-30.82
-35.55
-40.62
-45.67
-50.10
-53.14
-54.10
-52.56
-48.58
-42.65
-35.44
-27.63
-19.64
-11.75
-4.12
3.14
9.85
15.93
21.35
26.13
30.32
33.81
36.45
38.05
38.53
38.04
36.88
35.43
34.02
32.86
32.02
31.50
31.23
31.11
31.03
30.85
30.48
29.82
28.81
27.39
25.49
23.02
19.92
16.24
12.14
7.88
3.77
-0.01
-3.41
-6.56
-9.62
-12.71
-15.85
-18.98
-22.04
-25.10
-28.30
-31.77
-35.55
-39.54
-43.49
-47.19
-50.55
-53.56
-56.17
-58.13
-58.91
-57.86
-54.44
-48.57
-40.68
-31.67
-22.49
-13.78
-5.82
1.57
8.72
15.81
22.71
29.09
34.57
38.98
42.38
45.05
47.20
48.87
49.91
50.09
49.27
47.54
45.21
42.71
40.46
38.72
37.63
37.10
36.98
36.98
36.77
36.06
34.63
32.44
29.62
26.43
23.18
20.07
17.13
14.24
11.21
7.90
4.28
0.39
-3.70
-7.94
-12.34
-16.84
-21.35
-25.67
-29.58
-32.93
-35.69
-37.97
-39.92
-41.74
-43.55
-45.48
-47.68
-50.35
-53.54
-57.03
-60.19
-62.04
-61.58
-58.13
-51.74
-43.12
-33.39
-23.66
-14.64
-6.65
0.38
6.54
11.91
16.47
20.25
23.34
25.86
27.89
29.37
30.16
30.09
29.11
27.26
24.77
21.98
19.38
17.46
16.68
17.28
19.27
22.39
26.17
30.03
33.39
35.76
36.84
36.60
35.24
33.21
31.04
29.19
27.90
27.10
26.52
25.71
24.26
21.99
19.02
15.81
12.93
10.90
9.88
9.60
9.36
8.39
6.03
2.01
-3.51
-10.02
-16.79
-23.30
-29.48
-36.04
-44.45
-56.30
-72.49
-92.39
-113.70
-132.88
-146.20
-150.79
-145.39
-130.46
-107.98
-80.81
-52.10
-24.69
-0.59
19.17
34.50
45.73
53.18
56.91
56.83
53.19
46.91
39.49
32.58
27.29
24.00
22.46
22.25
23.07
24.80
27.21
29.71
31.40
31.30
28.90
24.39
18.61
12.60
7.31
3.25
0.50
-1.05
-1.65
-1.57
-1.10
-0.52
-0.04
0.33
0.64
0.92
1.02
0.63
-0.66
-3.09
-6.76
-11.56
-17.37
-24.08
-31.46
-39.04
-46.07
-51.61
-54.85
-55.43
-53.47
-49.57
-44.39
-38.41
-31.75
-24.35
-16.16
-7.28
1.92
10.95
19.38
26.97
33.65
39.40
44.15
47.71
49.90
50.65
50.10
48.59
46.52
44.21
41.88
39.66
37.64
35.89
34.48
33.44
32.76
32.33
31.96
31.44
30.59
29.29
27.53
25.35
22.80
19.95
16.85
13.59
10.31
7.13
4.14
1.33
-1.40
-4.18
-7.06
-9.96
-12.76
-15.34
-17.76
-20.18
-22.80
-25.83
-29.38
-33.49
-38.21
-43.48
-49.07
-54.42
-58.70
-61.04
-60.82
-57.92
-52.76
-46.04
-38.38
-30.25
-21.85
-13.34
-5.00
2.81
9.77
15.80
21.06
25.81
30.24
34.27
37.59
39.84
40.81
40.57
39.42
37.75
35.95
34.19
32.49
30.88
29.45
28.38
27.86
27.94
28.40
28.78
28.50
27.22
24.96
22.08
19.11
16.38
13.90
11.35
8.41
4.97
1.28
-2.20
-5.09
-7.31
-9.10
-10.92
-13.06
-15.60
-18.28
-20.80
-22.97
-24.91
-26.92
-29.37
-32.52
-36.43
-40.97
-45.92
-51.01
-55.86
-59.90
-62.42
-62.66
-60.07
-54.57
-46.64
-37.15
-27.16
-17.54
-8.89
-1.37
5.12
10.84
16.11
21.13
25.97
30.54
34.60
37.84
39.98
40.92
40.71
39.58
37.85
35.86
33.88
32.16
30.78
29.73
28.95
28.31
27.71
26.97
25.98
24.53
22.49
19.87
16.88
13.84
11.10
8.76
6.71
4.58
2.02
-1.15
-4.82
-8.72
-12.51
-16.02
-19.24
-22.28
-25.33
-28.50
-31.90
-35.65
-39.80
-44.32
-48.88
-52.87
-55.49
-55.96
-53.83
-49.07
-42.15
-33.87
-25.08
-16.48
-8.56
-1.46
4.77
10.22
14.96
19.01
22.42
25.20
27.47
29.37
31.10
32.74
34.27
35.53
36.25
36.28
35.65
34.61
33.51
32.72
32.44
32.59
32.88
32.83
32.02
30.23
27.48
24.08
20.42
16.79
13.33
9.99
6.63
3.15
-0.45
-4.11
-7.76
-11.38
-15.06
-18.85
-22.73
-26.55
-30.14
-33.34
-36.20
-39.00
-42.20
-46.18
-51.03
-56.29
-60.98
-63.86
-63.83
-60.42
-53.93
-45.28
-35.63
-25.98
-16.92
-8.58
-0.88
6.25
12.74
18.43
23.15
26.96
30.07
32.81
35.37
37.74
39.64
40.66
40.54
39.38
37.59
35.78
34.48
33.88
33.77
33.65
33.01
31.59
29.53
27.27
25.35
24.16
23.67
23.47
22.97
21.65
19.36
16.30
12.96
9.79
7.02
4.60
2.25
-0.27
-3.08
-6.17
-9.46
-13.00
-16.90
-21.31
-26.18
-31.18
-35.84
-39.82
-43.07
-45.95
-49.01
-52.61
-56.76
-60.86
-63.99
-65.22
-63.90
-59.84
-53.36
-45.03
-35.58
-25.68
-15.91
-6.75
1.49
8.61
14.52
19.30
23.07
26.07
28.58
30.80
32.85
34.63
35.85
36.25
35.67
34.30
32.64
31.29
30.80
31.34
32.68
34.28
35.54
36.06
35.72
34.63
33.02
31.00
28.53
25.49
21.80
17.61
13.28
9.32
6.10
3.72
1.88
0.09
-2.14
-5.09
-8.68
-12.63
-16.62
-20.42
-24.00
-27.41
-30.72
-33.93
-37.07
-40.16
-43.29
-46.47
-49.46
-51.75
-52.60
-51.29
-47.51
-41.53
-34.14
-26.36
-19.09
-12.84
-7.60
-3.02
1.33
5.80
10.48
15.28
19.93
24.13
27.59
30.11
31.61
32.14
31.92
31.25
30.40
29.58
28.87
28.29
27.83
27.47
27.21
27.02
26.78
26.32
25.42
23.93
21.82
19.17
16.11
12.80
9.36
5.90
2.48
-0.83
-4.07
-7.29
-10.59
-14.02
-17.56
-21.10
-24.53
-27.73
-30.66
-33.42
-36.20
-39.28
-42.91
-47.26
-52.16
-57.06
-61.08
-63.18
-62.53
-58.73
-52.07
-43.33
-33.57
-23.74
-14.47
-5.98
1.73
8.75
15.07
20.56
25.15
28.93
32.17
35.22
38.32
41.42
44.13
46.00
46.68
46.15
44.75
42.98
41.34
40.07
39.21
38.63
38.21
37.89
37.64
37.42
37.14
36.59
35.61
34.06
31.88
29.05
25.58
21.56
17.11
12.48
7.97
3.80
0.07
-3.32
-6.65
-10.22
-14.26
-18.80
-23.67
-28.57
-33.28
-37.71
-41.98
-46.36
-51.00
-55.99
-61.19
-66.32
-70.93
-74.50
-76.33
-75.73
-72.13
-65.38
-55.88
-44.59
-32.72
-21.37
-11.26
-2.59
4.79
11.12
16.55
21.10
24.73
27.48
29.57
31.30
32.98
34.79
36.69
38.48
39.84
40.51
40.43
39.80
38.96
38.27
37.88
37.62
37.18
36.24
34.69
32.67
30.55
28.67
27.18
25.96
24.68
23.03
20.77
17.96
14.78
11.49
8.26
5.11
1.90
-1.57
-5.40
-9.51
-13.65
-17.55
-21.03
-24.04
-26.69
-29.11
-31.49
-34.00
-36.83
-40.23
-44.36
-49.17
-54.25
-58.76
-61.66
-61.98
-59.16
-53.28
-45.05
-35.53
-25.85
-16.85
-8.98
-2.30
3.39
8.33
12.67
16.43
19.57
22.06
23.94
25.33
26.37
27.17
27.73
27.95
27.77
27.26
26.64
26.17
26.02
26.16
26.31
26.14
25.46
24.34
23.11
22.14
21.59
21.32
20.92
19.95
18.09
15.38
12.07
8.54
5.02
1.54
-2.07
-6.04
-10.49
-15.36
-20.45
-25.51
-30.38
-35.05
-39.61
-44.13
-48.57
-52.67
-55.96
-57.90
-58.01
-56.11
-52.37
-47.29
-41.41
-35.12
-28.47
-21.28
-13.46
-5.19
2.99
10.37
16.40
20.96
24.40
27.29
30.16
33.21
36.29
39.03
41.08
42.27
42.65
42.44
41.89
41.17
40.34
39.39
38.25
36.89
35.31
33.54
31.56
29.31
26.65
23.58
20.25
17.05
14.39
12.55
11.50
10.83
9.94
8.32
5.70
2.17
-1.86
-5.88
-9.49
-12.56
-15.20
-17.75
-20.53
-23.79
-27.65
-32.19
-37.42
-43.29
-49.53
-55.46
-60.08
-62.31
-61.37
-57.16
-50.26
-41.76
-32.81
-24.32
-16.80
-10.44
-5.24
-1.04
2.45
5.62
8.91
12.66
17.04
21.93
27.06
32.03
36.39
39.67
41.40
41.22
39.10
35.33
30.58
25.70
21.45
18.32
16.51
15.90
16.18
16.96
17.75
18.08
17.55
15.91
13.15
9.52
5.49
1.69
-1.36
-3.28
-4.01
-3.85
-3.28
-2.86
-3.00
-3.92
-5.65
-8.15
-11.34
-15.19
-19.63
-24.59
-29.91
-35.48
-41.09
-46.45
-51.09
-54.36
-55.55
-54.14
-49.96
-43.33
-34.99
-25.91
-17.07
-9.23
-2.77
2.31
6.34
9.84
13.26
16.87
20.64
24.29
27.42
29.75
31.16
31.72
31.57
30.86
29.70
28.16
26.38
24.62
23.26
22.62
22.89
23.96
25.47
26.93
27.89
28.12
27.58
26.38
24.56
22.04
18.69
14.37
9.18
3.47
-2.29
-7.63
-12.36
-16.47
-20.15
-23.67
-27.21
-30.89
-34.77
-38.86
-43.16
-47.56
-51.91
-55.94
-59.35
-61.81
-62.97
-62.55
-60.36
-56.38
-50.75
-43.77
-35.85
-27.48
-19.21
-11.58
-4.99
0.40
4.75
8.44
11.94
15.56
19.38
23.32
27.27
31.16
34.98
38.68
42.13
45.13
47.51
49.16
50.09
50.29
49.72
48.22
45.71
42.24
38.07
33.64
29.45
25.76
22.61
19.70
16.57
12.71
7.86
2.07
-4.26
-10.50
-16.09
-20.76
-24.61
-28.08
-31.69
-35.82
-40.48
-45.37
-49.83
-53.10
-54.47
-53.41
-49.80
-43.94
-36.45
-28.14
-19.80
-12.01
-5.11
0.80
5.81
10.09
13.95
17.76
21.80
26.18
30.75
35.08
38.71
41.27
42.69
43.08
42.64
41.54
39.91
37.84
35.54
33.23
31.15
29.37
27.80
26.20
24.30
21.95
19.18
16.09
12.87
9.59
6.30
2.98
-0.39
-3.76
-7.09
-10.34
-13.53
-16.76
-20.13
-23.69
-27.43
-31.27
-35.12
-39.02
-43.09
-47.46
-52.10
-56.67
-60.51
-62.84
-62.90
-60.27
-54.92
-47.24
-37.86
-27.60
-17.22
-7.47
1.15
8.40
14.36
19.37
23.91
28.30
32.61
36.62
40.00
42.44
43.82
44.24
43.96
43.23
42.26
41.17
40.04
38.93
37.94
37.14
36.56
36.05
35.38
34.25
32.48
30.03
27.16
24.16
21.34
18.77
16.38
13.99
11.48
8.87
6.30
3.90
1.69
-0.44
-2.70
-5.32
-8.36
-11.76
-15.33
-18.87
-22.20
-25.22
-27.96
-30.52
-33.15
-36.14
-39.79
-44.24
-49.31
-54.49
-58.94
-61.73
-62.00
-59.35
-53.84
-46.00
-36.63
-26.61
-16.73
-7.60
0.37
6.94
12.17
16.37
19.99
23.53
27.24
31.03
34.50
37.13
38.45
38.31
36.86
34.45
31.51
28.44
25.59
23.19
21.45
20.49
20.27
20.56
20.95
21.00
20.42
19.13
17.36
15.47
13.77
12.37
11.14
9.79
8.09
5.98
3.58
1.14
-1.17
-3.35
-5.58
-8.03
-10.84
-13.93
-17.06
-19.99
-22.63
-25.06
-27.55
-30.43
-33.85
-37.76
-41.93
-46.01
-49.62
-52.36
-53.78
-53.47
-51.08
-46.54
-40.06
-32.18
-23.58
-14.89
-6.60
1.01
7.79
13.64
18.54
22.51
25.65
28.14
30.10
31.57
32.53
32.96
32.91
32.54
32.07
31.65
31.31
30.96
30.49
29.86
29.14
28.45
27.90
27.44
26.86
25.83
24.06
21.46
18.20
14.63
11.17
8.07
5.29
2.58
-0.39
-3.84
-7.69
-11.55
-15.02
-17.80
-19.87
-21.50
-23.11
-25.04
-27.50
-30.49
-33.93
-37.72
-41.70
-45.73
-49.51
-52.62
-54.46
-54.43
-52.06
-47.29
-40.47
-32.36
-23.89
-15.84
-8.64
-2.29
3.44
8.86
14.14
19.19
23.80
27.69
30.64
32.58
33.50
33.46
32.56
30.94
28.84
26.65
24.86
23.84
23.74
24.31
24.93
24.89
23.68
21.30
18.27
15.36
13.30
12.39
12.44
12.87
13.08
12.67
11.62
10.21
8.73
7.39
6.14
4.71
2.84
0.39
-2.58
-5.83
-9.10
-12.23
-15.30
-18.54
-22.17
-26.26
-30.62
-34.94
-38.96
-42.65
-46.27
-50.09
-54.16
-57.99
-60.70
-61.16
-58.59
-52.86
-44.58
-34.83
-24.77
-15.25
-6.71
0.83
7.42
13.12
17.89
21.69
24.59
26.81
28.62
30.27
31.83
33.20
34.13
34.44
34.02
33.02
31.69
30.38
29.40
28.89
28.81
28.91
28.92
28.57
27.78
26.57
25.16
23.70
22.27
20.85
19.29
17.54
15.60
13.63
11.78
10.09
8.47
6.69
4.54
1.94
-1.10
-4.46
-8.07
-11.90
-15.93
-20.16
-24.47
-28.67
-32.52
-35.83
-38.55
-40.85
-43.08
-45.67
-48.90
-52.72
-56.55
-59.50
-60.57
-59.08
-54.88
-48.44
-40.53
-31.95
-23.33
-15.05
-7.35
-0.43
5.50
10.35
14.19
17.32
20.11
22.89
25.75
28.52
30.79
32.14
32.34
31.49
30.04
28.66
27.95
28.19
29.21
30.51
31.47
31.70
31.07
29.78
28.15
26.44
24.71
22.86
20.75
18.25
15.42
12.42
9.44
6.61
3.93
1.21
-1.73
-4.99
-8.46
-11.91
-15.10
-17.90
-20.46
-23.00
-25.75
-28.75
-31.92
-35.10
-38.26
-41.53
-45.07
-48.83
-52.40
-55.01
-55.71
-53.76
-48.98
-41.82
-33.26
-24.45
-16.29
-9.22
-3.15
2.28
7.44
12.52
17.39
21.73
25.23
27.76
29.39
30.38
30.95
31.24
31.23
30.87
30.19
29.34
28.58
28.15
28.11
28.29
28.37
28.02
27.10
25.69
24.06
22.50
21.15
19.86
18.30
16.10
13.07
9.33
5.28
1.39
-2.00
-4.82
-7.30
-9.75
-12.45
-15.47
-18.74
-22.08
-25.34
-28.48
-31.65
-35.03
-38.84
-43.15
-47.89
-52.73
-57.09
-60.25
-61.37
-59.89
-55.61
-48.83
-40.29
-30.91
-21.52
-12.77
-5.05
1.54
7.13
11.96
16.42
20.79
25.22
29.60
33.56
36.73
38.80
39.81
39.99
39.68
39.09
38.25
37.13
35.70
34.12
32.69
31.70
31.25
31.18
31.10
30.57
29.33
27.40
25.09
22.83
20.91
19.42
18.13
16.62
14.53
11.68
8.21
4.48
0.91
-2.23
-4.95
-7.46
-10.09
-13.11
-16.65
-20.73
-25.28
-30.17
-35.31
-40.64
-46.14
-51.81
-57.57
-63.09
-67.70
-70.48
-70.49
-67.16
-60.56
-51.40
-40.77
-29.79
-19.24
-9.53
-0.78
7.02
13.87
19.86
25.09
29.74
33.97
37.86
41.28
44.01
45.82
46.53
46.17
44.97
43.27
41.44
39.80
38.45
37.35
36.31
35.11
33.68
32.09
30.51
29.07
27.79
26.55
25.14
23.39
21.22
18.68
15.86
12.85
9.70
6.37
2.82
-0.94
-4.82
-8.62
-12.15
-15.31
-18.19
-20.93
-23.75
-26.73
-29.87
-33.11
-36.47
-40.13
-44.31
-49.11
-54.35
-59.42
-63.38
-65.21
-64.13
-59.84
-52.64
-43.32
-32.95
-22.55
-12.84
-4.12
3.56
10.32
16.26
21.42
25.76
29.35
32.30
34.75
36.78
38.37
39.44
39.94
39.91
39.49
38.88
38.21
37.53
36.75
35.74
34.44
32.83
30.98
29.06
27.26
25.76
24.56
23.53
22.35
20.68
18.29
15.23
11.73
8.14
4.68
1.34
-2.04
-5.70
-9.76
-14.19
-18.78
-23.30
-27.64
-31.86
-36.20
-40.94
-46.30
-52.21
-58.24
-63.59
-67.29
-68.51
-66.83
-62.35
-55.63
-47.39
-38.27
-28.68
-18.90
-9.18
0.15
8.73
16.28
22.71
28.10
32.62
36.36
39.23
41.10
41.90
41.78
41.04
40.06
39.16
38.41
37.75
37.02
36.14
35.14
34.11
33.14
32.23
31.22
29.91
28.07
25.61
22.59
19.22
15.79
12.54
9.57
6.88
4.33
1.75
-1.04
-4.17
-7.70
-11.62
-15.86
-20.36
-25.03
-29.80
-34.57
-39.26
-43.82
-48.20
-52.44
-56.54
-60.35
-63.51
-65.37
-65.24
-62.57
-57.18
-49.45
-40.17
-30.33
-20.79
-12.06
-4.26
2.79
9.37
15.68
21.73
27.38
32.43
36.72
40.19
42.84
44.71
45.77
45.96
45.27
43.84
41.96
40.01
38.27
36.89
35.78
34.73
33.52
32.06
30.43
28.79
27.23
25.71
24.08
22.10
19.63
16.73
13.64
10.66
8.01
5.75
3.72
1.67
-0.64
-3.35
-6.49
-10.03
-13.90
-18.00
-22.21
-26.44
-30.65
-34.92
-39.38
-44.13
-49.15
-54.25
-59.08
-63.15
-65.97
-66.97
-65.60
-61.48
-54.59
-45.43
-34.94
-24.32
-14.59
-6.33
0.46
6.17
11.36
16.44
21.58
26.71
31.58
35.85
39.21
41.48
42.64
42.84
42.39
41.52
40.43
39.19
37.92
36.73
35.75
35.06
34.50
33.84
32.82
31.27
29.33
27.24
25.29
23.60
22.08
20.47
18.47
15.94
12.93
9.65
6.37
3.27
0.34
-2.60
-5.80
-9.43
-13.51
-17.86
-22.19
-26.20
-29.74
-32.83
-35.67
-38.58
-41.93
-45.96
-50.67
-55.74
-60.52
-64.17
-65.86
-65.05
-61.62
-55.82
-48.19
-39.34
-29.89
-20.39
-11.37
-3.21
3.90
10.04
15.57
20.89
26.22
31.47
36.25
40.10
42.73
44.11
44.43
43.93
42.73
40.86
38.34
35.40
32.45
30.03
28.57
28.17
28.53
29.05
29.05
28.07
26.02
23.21
20.15
17.28
14.82
12.68
10.60
8.28
5.60
2.58
-0.68
-4.08
-7.69
-11.56
-15.70
-20.03
-24.37
-28.54
-32.51
-36.47
-40.72
-45.58
-51.17
-57.17
-62.86
-67.17
-68.99
-67.56
-62.77
-55.16
-45.76
-35.68
-25.82
-16.72
-8.62
-1.54
4.62
10.07
15.14
20.19
25.50
31.08
36.62
41.57
45.36
47.52
47.97
46.95
45.03
42.89
41.15
40.21
40.12
40.61
41.28
41.70
41.60
40.85
39.51
37.68
35.49
33.04
30.38
27.52
24.45
21.15
17.68
14.10
10.51
6.98
3.48
-0.06
-3.71
-7.50
-11.36
-15.19
-18.87
-22.32
-25.51
-28.49
-31.29
-34.02
-36.79
-39.70
-42.86
-46.40
-50.45
-54.98
-59.75
-64.11
-67.12
-67.74
-65.24
-59.59
-51.46
-42.04
-32.56
-23.81
-15.97
-8.78
-1.84
5.07
11.85
18.27
24.02
28.96
33.07
36.37
38.86
40.51
41.28
41.20
40.44
39.26
38.01
37.06
36.64
36.74
37.04
37.05
36.25
34.44
31.83
28.98
26.54
24.94
24.13
23.71
23.11
21.92
20.03
17.61
14.89
11.98
8.86
5.43
1.75
-1.99
-5.45
-8.38
-10.79
-12.96
-15.32
-18.26
-21.91
-26.06
-30.32
-34.28
-37.72
-40.68
-43.50
-46.65
-50.48
-55.06
-60.00
-64.44
-67.39
-68.00
-65.87
-61.23
-54.66
-46.86
-38.34
-29.40
-20.30
-11.46
-3.48
3.14
8.23
12.15
15.64
19.41
23.73
28.26
32.28
35.08
36.35
36.27
35.45
34.55
34.00
34.02
34.52
35.34
36.29
37.22
37.97
38.40
38.33
37.62
36.21
34.12
31.56
28.78
26.03
23.46
21.07
18.76
16.30
13.56
10.54
7.37
4.23
1.31
-1.37
-3.92
-6.56
-9.50
-12.85
-16.59
-20.57
-24.60
-28.61
-32.61
-36.76
-41.13
-45.73
-50.34
-54.56
-57.84
-59.62
-59.43
-57.04
-52.53
-46.27
-38.89
-31.04
-23.21
-15.70
-8.60
-1.98
4.10
9.50
14.17
18.20
21.79
25.16
28.34
31.22
33.53
35.09
35.84
35.97
35.72
35.23
34.48
33.39
31.94
30.22
28.51
27.07
26.03
25.36
24.86
24.28
23.46
22.30
20.81
19.02
16.88
14.27
11.06
7.19
2.84
-1.65
-5.85
-9.48
-12.47
-15.05
-17.59
-20.34
-23.37
-26.53
-29.65
-32.71
-35.91
-39.59
-44.08
-49.42
-55.30
-61.06
-65.77
-68.48
-68.42
-65.25
-59.23
-51.10
-41.90
-32.56
-23.70
-15.47
-7.70
-0.18
7.18
14.24
20.76
26.50
31.31
35.17
38.14
40.28
41.72
42.49
42.67
42.29
41.42
40.16
38.76
37.47
36.49
35.83
35.37
34.87
34.13
33.15
32.03
30.88
29.74
28.51
26.97
24.93
22.24
18.87
14.93
10.64
6.29
2.26
-1.19
-3.90
-5.92
-7.50
-8.99
-10.77
-13.14
-16.24
-20.01
-24.16
-28.26
-31.87
-34.76
-37.08
-39.32
-42.14
-46.06
-51.11
-56.77
-62.01
-65.65
-66.70
-64.68
-59.65
-52.28
-43.49
-34.20
-25.15
-16.76
-9.14
-2.29
3.88
9.44
14.46
19.06
23.37
27.48
31.36
34.85
37.70
39.71
40.83
41.14
40.88
40.29
39.50
38.54
37.29
35.70
33.78
31.71
29.80
28.35
27.51
27.13
26.80
26.05
24.53
22.23
19.41
16.45
13.68
11.15
8.76
6.36
3.90
1.48
-0.76
-2.76
-4.64
-6.69
-9.22
-12.43
-16.24
-20.35
-24.40
-28.06
-31.20
-33.92
-36.52
-39.36
-42.78
-46.93
-51.70
-56.60
-60.85
-63.54
-63.84
-61.34
-56.09
-48.64
-39.83
-30.56
-21.56
-13.35
-6.17
-0.06
5.12
9.66
13.92
18.20
22.57
26.81
30.46
33.07
34.45
34.82
34.68
34.57
34.78
35.19
35.44
35.15
34.18
32.70
31.03
29.46
28.09
26.86
25.63
24.29
22.75
20.95
18.86
16.44
13.67
10.62
7.41
4.19
1.09
-1.80
-4.42
-6.79
-9.00
-11.15
-13.38
-15.83
-18.63
-21.94
-25.88
-30.52
-35.84
-41.64
-47.63
-53.32
-58.13
-61.36
-62.35
-60.60
-56.02
-48.97
-40.26
-30.81
-21.39
-12.51
-4.30
3.21
9.95
15.79
20.64
24.48
27.51
30.00
32.16
34.06
35.61
36.64
37.04
36.83
36.17
35.33
34.60
34.20
34.14
34.21
34.11
33.53
32.41
30.93
29.41
28.11
27.02
25.89
24.42
22.38
19.84
17.01
14.09
11.12
7.96
4.36
0.16
-4.61
-9.71
-14.79
-19.53
-23.68
-27.18
-30.18
-33.01
-36.05
-39.65
-44.04
-49.17
-54.78
-60.40
-65.43
-69.19
-70.99
-70.18
-66.41
-59.75
-50.80
-40.55
-30.14
-20.47
-11.97
-4.51
2.30
8.91
15.44
21.72
27.31
31.81
35.05
37.12
38.34
39.00
39.38
39.58
39.65
39.61
39.50
39.37
39.20
38.94
38.44
37.60
36.38
34.85
33.17
31.50
29.92
28.41
26.80
24.94
22.70
20.05
17.09
13.93
10.66
7.34
3.96
0.52
-2.98
-6.51
-10.10
-13.72
-17.43
-21.19
-24.94
-28.61
-32.10
-35.41
-38.64
-42.02
-45.77
-50.00
-54.50
-58.75
-61.95
-63.30
-62.19
-58.48
-52.48
-44.80
-36.13
-27.10
-18.18
-9.75
-2.09
4.67
10.46
15.47
19.95
24.18
28.29
32.18
35.60
38.25
39.94
40.71
40.81
40.59
40.27
39.95
39.52
38.79
37.74
36.50
35.29
34.26
33.35
32.29
30.74
28.53
25.74
22.67
19.70
17.05
14.75
12.64
10.51
8.21
5.61
2.60
-0.89
-4.89
-9.35
-14.07
-18.77
-23.23
-27.30
-31.01
-34.45
-37.72
-40.96
-44.28
-47.81
-51.63
-55.68
-59.58
-62.64
-64.06
-63.17
-59.71
-53.91
-46.34
-37.69
-28.52
-19.22
-10.00
-1.08
7.26
14.71
21.06
26.25
30.39
33.68
36.28
38.23
39.43
39.82
39.33
38.12
36.44
34.66
33.17
32.17
31.76
31.87
32.30
32.83
33.19
33.16
32.45
30.85
28.20
24.60
20.43
16.23
12.60
9.89
8.07
6.69
5.09
2.68
-0.87
-5.49
-10.83
-16.38
-21.67
-26.43
-30.58
-34.26
-37.74
-41.36
-45.43
-50.08
-55.24
-60.63
-65.66
-69.59
-71.59
-70.90
-67.14
-60.38
-51.25
-40.69
-29.74
-19.22
-9.59
-1.00
6.64
13.45
19.59
25.18
30.35
35.16
39.59
43.48
46.60
48.74
49.82
49.95
49.37
48.41
47.39
46.46
45.74
45.17
44.64
43.97
43.03
41.71
40.03
37.99
35.63
32.95
29.89
26.42
22.51
18.26
13.87
9.60
5.73
2.41
-0.43
-3.02
-5.73
-8.92
-12.76
-17.17
-21.90
-26.61
-31.06
-35.12
-38.84
-42.34
-45.80
-49.35
-53.10
-56.99
-60.79
-63.97
-65.79
-65.50
-62.55
-56.79
-48.60
-38.77
-28.27
-18.06
-8.83
-0.93
5.68
11.30
16.33
21.10
25.83
30.47
34.80
38.53
41.38
43.20
43.99
43.86
43.02
41.62
39.86
37.93
36.09
34.64
33.81
33.69
34.09
34.59
34.68
33.99
32.36
29.94
27.12
24.26
21.54
18.93
16.27
13.42
10.35
7.21
4.18
1.32
-1.52
-4.60
-8.10
-12.02
-16.11
-19.96
-23.27
-26.02
-28.47
-31.07
-34.24
-38.22
-43.03
-48.45
-54.15
-59.68
-64.54
-68.10
-69.72
-68.85
-65.20
-58.94
-50.67
-41.24
-31.52
-22.21
-13.67
-5.96
1.03
7.42
13.31
18.74
23.62
27.86
31.35
34.02
35.85
36.91
37.40
37.52
37.42
37.14
36.66
35.94
34.97
33.81
32.53
31.24
29.99
28.84
27.80
26.78
25.67
24.26
22.37
19.80
16.47
12.35
7.55
2.28
-3.10
-8.23
-12.73
-16.44
-19.45
-22.12
-24.92
-28.20
-32.00
-36.12
-40.17
-43.85
-47.09
-50.03
-52.86
-55.54
-57.73
-58.76
-57.91
-54.65
-48.97
-41.37
-32.69
-23.78
-15.27
-7.43
-0.26
6.36
12.45
17.99
22.92
27.23
30.97
34.17
36.80
38.73
39.82
40.01
39.39
38.18
36.73
35.42
34.57
34.34
34.64
35.10
35.22
34.57
32.94
30.51
27.64
24.71
21.90
19.10
16.06
12.61
8.81
4.90
1.22
-1.98
-4.65
-6.97
-9.23
-11.72
-14.58
-17.77
-21.05
-24.13
-26.84
-29.29
-31.85
-35.01
-39.14
-44.24
-49.91
-55.50
-60.30
-63.75
-65.50
-65.24
-62.72
-57.70
-50.12
-40.28
-28.86
-16.79
-5.05
5.57
14.64
22.05
27.92
32.53
36.20
39.29
42.15
45.10
48.35
51.88
55.52
58.91
61.65
63.44
64.15
63.90
63.04
61.99
61.20
60.90
61.08
61.37
61.19
59.96
57.35
53.44
48.78
44.10
39.89
36.16
32.32
27.52
21.12
13.15
4.27
-4.51
-12.42
-19.32
-25.59
-31.80
-38.16
-44.35
-49.62
-53.27
-55.12
-55.69
-55.96
-56.98
-59.33
-63.03
-67.58
-72.29
-76.50
-79.71
-81.46
-81.36
-78.96
-73.98
-66.36
-56.44
-44.90
-32.56
-20.14
-8.13
3.18
13.58
22.77
30.39
36.09
39.68
41.32
41.42
40.53
39.13
37.57
35.97
34.26
32.20
29.54
26.13
21.99
17.40
12.86
8.83
5.54
2.88
0.47
-2.16
-5.30
-9.03
-13.32
-18.06
-23.03
-27.71
-31.15
-32.31
-30.49
-25.91
-19.80
-13.96
-10.07
-9.05
-10.93
-15.08
-20.77
-27.39
-34.39
-40.91
-45.76
-47.63
-45.70
-40.05
-31.74
-22.39
-13.42
-5.68
0.67
5.99
10.77
15.44
20.16
24.91
29.50
33.68
37.16
39.64
40.89
40.83
39.57
37.45
35.00
32.70
30.93
29.74
28.92
28.05
26.76
24.86
22.43
19.78
17.27
15.11
13.33
11.75
10.11
8.15
5.78
2.97
-0.20
-3.63
-7.24
-10.95
-14.60
-17.97
-20.82
-23.08
-24.96
-26.95
-29.73
-33.76
-39.01
-44.75
-49.67
-52.36
-51.82
-47.86
-41.15
-32.90
-24.33
-16.24
-8.86
-1.96
4.81
11.61
18.26
24.45
29.94
34.72
38.93
42.68
45.84
48.04
48.92
48.38
46.72
44.55
42.47
40.80
39.48
38.12
36.33
33.91
30.95
27.75
24.69
22.04
19.96
18.42
17.26
16.28
15.30
14.23
13.12
12.00
10.84
9.47
7.71
5.38
2.49
-0.78
-4.22
-7.70
-11.28
-15.16
-19.53
-24.45
-29.82
-35.40
-40.98
-46.33
-51.24
-55.36
-58.12
-58.87
-57.03
-52.37
-45.22
-36.41
-27.12
-18.47
-11.22
-5.58
-1.24
2.39
5.92
9.68
13.75
17.92
21.94
25.54
28.49
30.70
32.12
32.82
32.92
32.55
31.80
30.77
29.55
28.24
27.01
25.97
25.25
24.78
24.42
23.93
23.10
21.80
20.06
17.99
15.72
13.33
10.85
8.25
5.52
2.74
0.02
-2.48
-4.69
-6.71
-8.76
-11.13
-13.97
-17.27
-20.77
-24.19
-27.32
-30.17
-33.04
-36.30
-40.21
-44.77
-49.53
-53.70
-56.32
-56.54
-53.90
-48.51
-40.95
-32.15
-23.06
-14.39
-6.56
0.25
6.00
10.71
14.52
17.66
20.51
23.38
26.42
29.44
32.02
33.71
34.30
33.91
32.95
31.86
30.99
30.39
29.96
29.50
28.92
28.25
27.58
27.02
26.50
25.80
24.65
22.76
20.06
16.63
12.73
8.61
4.50
0.50
-3.39
-7.15
-10.76
-14.10
-17.12
-19.84
-22.44
-25.19
-28.36
-32.16
-36.64
-41.71
-47.07
-52.32
-56.92
-60.27
-61.80
-61.04
-57.74
-51.92
-43.97
-34.50
-24.33
-14.27
-4.93
3.35
10.52
16.74
22.18
26.93
30.93
34.04
36.10
37.14
37.32
36.99
36.50
36.15
36.05
36.16
36.32
36.29
35.88
34.98
33.62
31.88
29.87
27.66
25.33
22.93
20.52
18.16
15.85
13.53
11.05
8.32
5.24
1.86
-1.67
-5.16
-8.46
-11.54
-14.51
-17.65
-21.23
-25.40
-30.10
-35.03
-39.74
-43.73
-46.74
-48.77
-50.15
-51.51
-53.43
-56.32
-60.11
-64.20
-67.56
-69.00
-67.56
-62.84
-55.07
-45.03
-33.81
-22.40
-11.53
-1.64
7.17
14.86
21.48
27.09
31.76
35.70
39.10
42.13
44.89
47.39
49.54
51.29
52.58
53.36
53.51
52.85
51.24
48.72
45.53
42.13
39.00
36.46
34.62
33.33
32.33
31.36
30.22
28.78
26.99
24.86
22.52
20.13
17.90
16.00
14.48
13.28
12.20
11.00
9.48
7.39
4.60
1.01
-3.30
-8.08
-12.89
-17.30
-21.04
-24.06
-26.64
-29.11
-31.75
-34.70
-38.05
-41.86
-46.25
-51.27
-56.76
-62.07
-66.20
-68.07
-66.89
-62.46
-55.24
-46.18
-36.36
-26.69
-17.75
-9.75
-2.69
3.53
8.95
13.61
17.50
20.64
23.12
25.07
26.65
27.98
29.08
29.81
30.02
29.57
28.47
26.89
25.05
23.18
21.37
19.59
17.68
15.51
13.11
10.63
8.37
6.60
5.43
4.72
4.09
3.11
1.54
-0.55
-2.80
-4.72
-6.05
-6.90
-7.68
-8.90
-10.84
-13.43
-16.35
-19.24
-21.92
-24.50
-27.27
-30.45
-34.14
-38.21
-42.45
-46.63
-50.48
-53.68
-55.75
-56.10
-54.15
-49.60
-42.64
-33.87
-24.25
-14.75
-6.12
1.20
7.13
11.80
15.49
18.49
21.08
23.44
25.59
27.47
28.96
29.99
30.64
30.99
31.14
31.03
30.61
29.91
29.10
28.47
28.23
28.36
28.50
28.14
26.91
24.74
21.93
18.97
16.35
14.31
12.79
11.52
10.11
8.15
5.39
1.72
-2.76
-7.78
-12.99
-18.04
-22.73
-26.96
-30.78
-34.29
-37.62
-40.93
-44.42
-48.31
-52.73
-57.60
-62.45
-66.47
-68.65
-68.09
-64.32
-57.46
-48.19
-37.51
-26.43
-15.70
-5.71
3.38
11.53
18.69
24.77
29.73
33.63
36.69
39.15
41.23
43.02
44.43
45.26
45.30
44.44
42.78
40.59
38.25
36.14
34.51
33.44
32.86
32.55
32.28
31.83
31.05
29.85
28.23
26.21
23.88
21.36
18.76
16.25
13.97
12.00
10.33
8.87
7.42
5.65
3.19
-0.26
-4.89
-10.59
-17.02
-23.69
-30.12
-35.98
-41.12
-45.54
-49.35
-52.68
-55.82
-59.13
-62.89
-67.10
-71.27
-74.44
-75.39
-73.19
-67.54
-58.89
-48.27
-36.77
-25.35
-14.56
-4.63
4.33
12.26
19.16
25.09
30.23
34.70
38.54
41.64
43.75
44.69
44.50
43.43
41.93
40.46
39.42
38.97
39.04
39.43
39.84
40.04
39.90
39.37
38.54
37.40
35.99
34.29
32.30
30.04
27.61
25.11
22.66
20.32
18.11
15.99
13.84
11.53
8.99
6.15
3.04
-0.28
-3.76
-7.42
-11.23
-15.12
-18.95
-22.54
-25.82
-28.95
-32.30
-36.36
-41.44
-47.55
-54.24
-60.79
-66.30
-69.91
-70.99
-69.21
-64.54
-57.27
-48.01
-37.55
-26.79
-16.49
-7.18
1.01
8.14
14.43
20.04
25.04
29.38
32.97
35.80
37.91
39.38
40.30
40.70
40.61
40.11
39.39
38.68
38.16
37.84
37.50
36.78
35.38
33.21
30.52
27.76
25.39
23.66
22.44
21.33
19.86
17.76
15.08
12.09
9.07
6.09
2.98
-0.59
-4.84
-9.70
-14.78
-19.65
-24.07
-28.16
-32.31
-36.93
-42.16
-47.78
-53.30
-58.21
-62.13
-64.77
-65.81
-64.79
-61.31
-55.15
-46.58
-36.40
-25.72
-15.63
-6.85
0.44
6.51
11.90
17.08
22.29
27.41
32.07
35.84
38.49
40.08
40.96
41.51
41.96
42.19
41.90
40.84
39.05
36.93
35.03
33.82
33.41
33.58
33.96
34.16
34.00
33.48
32.67
31.60
30.20
28.33
25.82
22.59
18.66
14.22
9.56
5.05
0.93
-2.70
-5.93
-9.01
-12.19
-15.66
-19.41
-23.34
-27.28
-31.16
-35.06
-39.13
-43.55
-48.37
-53.45
-58.44
-62.83
-66.04
-67.50
-66.72
-63.38
-57.40
-49.04
-38.87
-27.74
-16.59
-6.26
2.78
10.42
16.90
22.62
28.00
33.22
38.19
42.56
45.93
47.98
48.66
48.21
47.04
45.55
43.99
42.42
40.86
39.27
37.74
36.36
35.16
34.06
32.91
31.54
29.87
27.91
25.77
23.57
21.41
19.33
17.31
15.23
12.90
10.22
7.19
3.97
0.82
-2.08
-4.73
-7.32
-10.11
-13.23
-16.66
-20.22
-23.81
-27.42
-31.14
-35.08
-39.18
-43.34
-47.48
-51.65
-55.97
-60.43
-64.74
-68.27
-70.18
-69.70
-66.44
-60.48
-52.27
-42.60
-32.34
-22.31
-13.16
-5.16
1.75
7.92
13.71
19.25
24.38
28.78
32.11
34.27
35.40
35.78
35.69
35.33
34.76
33.98
33.01
31.96
31.05
30.54
30.58
31.11
31.84
32.27
31.90
30.54
28.37
25.83
23.48
21.56
19.96
18.25
15.95
12.87
9.21
5.46
2.24
-0.13
-1.69
-2.95
-4.56
-7.06
-10.61
-14.94
-19.50
-23.76
-27.48
-30.72
-33.76
-36.86
-40.18
-43.68
-47.26
-50.77
-53.94
-56.29
-57.15
-55.79
-51.75
-45.07
-36.35
-26.54
-16.70
-7.61
0.34
7.16
13.09
18.42
23.35
27.94
32.05
35.51
38.13
39.82
40.63
40.69
40.17
39.19
37.82
36.14
34.29
32.51
31.02
29.91
29.11
28.40
27.57
26.51
25.27
23.97
22.69
21.39
19.87
17.90
15.27
11.90
7.96
3.72
-0.37
-3.98
-6.89
-9.16
-11.10
-13.16
-15.74
-18.96
-22.69
-26.56
-30.22
-33.50
-36.49
-39.44
-42.69
-46.45
-50.67
-54.97
-58.66
-60.91
-60.98
-58.46
-53.41
-46.29
-37.82
-28.78
-19.80
-11.37
-3.81
2.71
8.18
12.77
16.82
20.72
24.80
29.06
33.24
36.89
39.57
41.06
41.45
41.04
40.17
39.05
37.74
36.15
34.27
32.22
30.21
28.53
27.31
26.51
25.93
25.32
24.48
23.37
22.08
20.69
19.24
17.68
15.87
13.73
11.21
8.37
5.41
2.46
-0.33
-2.97
-5.51
-8.11
-10.92
-13.97
-17.22
-20.54
-23.74
-26.71
-29.52
-32.37
-35.55
-39.24
-43.51
-48.23
-53.11
-57.77
-61.63
-64.01
-64.13
-61.39
-55.58
-47.04
-36.69
-25.73
-15.29
-6.10
1.68
8.29
14.19
19.72
25.06
30.09
34.59
38.30
41.02
42.65
43.20
42.75
41.45
39.52
37.20
34.75
32.45
30.54
29.19
28.43
28.08
27.87
27.39
26.34
24.68
22.60
20.51
18.78
17.51
16.47
15.16
13.11
10.17
6.56
2.82
-0.53
-3.16
-5.13
-6.78
-8.53
-10.73
-13.49
-16.67
-19.99
-23.20
-26.13
-28.79
-31.39
-34.20
-37.44
-41.17
-45.26
-49.46
-53.50
-57.05
-59.73
-61.01
-60.31
-57.12
-51.32
-43.33
-34.00
-24.34
-15.16
-6.84
0.64
7.47
13.78
19.52
24.50
28.53
31.55
33.69
35.18
36.20
36.91
37.31
37.30
36.71
35.43
33.51
31.21
28.89
26.95
25.64
24.93
24.58
24.23
23.49
22.16
20.18
17.61
14.55
11.14
7.48
3.66
-0.09
-3.54
-6.42
-8.61
-10.16
-11.40
-12.78
-14.78
-17.60
-21.10
-24.89
-28.44
-31.42
-33.77
-35.78
-37.91
-40.62
-44.16
-48.41
-52.91
-56.84
-59.26
-59.33
-56.52
-50.81
-42.64
-32.81
-22.28
-11.93
-2.47
5.64
12.23
17.42
21.60
25.26
28.78
32.35
35.85
38.93
41.23
42.51
42.71
41.94
40.41
38.33
35.92
33.34
30.77
28.37
26.35
24.90
24.13
23.95
24.05
24.00
23.40
22.09
20.23
18.21
16.40
14.89
13.51
11.88
9.76
7.19
4.51
2.13
0.27
-1.26
-2.89
-5.13
-8.26
-12.24
-16.70
-21.19
-25.36
-29.07
-32.43
-35.72
-39.22
-43.12
-47.45
-52.01
-56.43
-60.17
-62.62
-63.24
-61.58
-57.48
-51.10
-42.90
-33.60
-23.97
-14.74
-6.43
0.67
6.47
11.12
14.87
18.06
21.06
24.14
27.39
30.73
33.88
36.55
38.49
39.64
40.10
40.04
39.58
38.80
37.76
36.61
35.58
34.93
34.84
35.26
35.84
36.13
35.71
34.44
32.51
30.31
28.15
26.13
24.09
21.68
18.59
14.76
10.37
5.89
1.77
-1.67
-4.47
-6.95
-9.59
-12.82
-16.73
-21.11
-25.51
-29.51
-32.98
-36.08
-39.26
-42.99
-47.51
-52.76
-58.37
-63.77
-68.31
-71.34
-72.25
-70.58
-66.12
-58.92
-49.44
-38.42
-26.81
-15.54
-5.43
3.08
9.90
15.28
19.67
23.53
27.15
30.56
33.63
36.09
37.74
38.49
38.38
37.53
36.15
34.49
32.80
31.32
30.19
29.48
29.16
29.13
29.18
29.14
28.79
28.00
26.73
25.09
23.26
21.37
19.36
17.10
14.44
11.34
8.02
4.85
2.13
-0.10
-2.12
-4.33
-7.03
-10.25
-13.78
-17.29
-20.62
-23.85
-27.33
-31.44
-36.41
-42.14
-48.21
-53.90
-58.33
-60.72
-60.57
-57.83
-52.90
-46.46
-39.23
-31.79
-24.42
-17.26
-10.40
-3.96
1.90
7.11
11.74
15.98
20.05
23.99
27.68
30.85
33.21
34.66
35.23
35.11
34.55
33.68
32.57
31.23
29.72
28.19
26.83
25.79
25.11
24.68
24.31
23.75
22.88
21.64
20.07
18.21
16.15
13.92
11.49
8.78
5.72
2.25
-1.54
-5.44
-9.20
-12.65
-15.80
-18.83
-21.96
-25.28
-28.71
-32.07
-35.29
-38.55
-42.21
-46.54
-51.44
-56.26
-59.90
-61.18
-59.30
-54.20
-46.53
-37.37
-27.82
-18.69
-10.33
-2.78
4.06
10.26
15.82
20.70
24.92
28.58
31.76
34.52
36.80
38.52
39.54
39.82
39.41
38.45
37.13
35.69
34.39
33.39
32.72
32.23
31.61
30.59
29.04
27.10
25.12
23.47
22.34
21.63
20.96
19.94
18.29
16.03
13.38
10.64
8.01
5.55
3.25
1.10
-0.86
-2.60
-4.18
-5.85
-7.93
-10.74
-14.38
-18.66
-23.24
-27.71
-31.90
-35.88
-39.92
-44.33
-49.20
-54.26
-58.80
-61.83
-62.40
-59.90
-54.36
-46.34
-36.86
-26.99
-17.60
-9.24
-2.08
3.96
9.07
13.49
17.47
21.21
24.88
28.58
32.26
35.69
38.49
40.17
40.35
38.98
36.43
33.43
30.81
29.16
28.54
28.54
28.51
27.90
26.55
24.69
22.81
21.34
20.46
20.10
20.01
19.94
19.72
19.23
18.33
16.79
14.32
10.77
6.30
1.38
-3.31
-7.22
-10.12
-12.35
-14.50
-17.18
-20.65
-24.75
-29.03
-33.02
-36.41
-39.14
-41.37
-43.31
-45.19
-47.14
-49.22
-51.27
-52.94
-53.66
-52.87
-50.16
-45.45
-39.13
-31.77
-24.08
-16.60
-9.68
-3.52
1.83
6.40
10.37
14.00
17.57
21.30
25.09
28.66
31.59
33.58
34.55
34.70
34.41
34.00
33.67
33.38
32.98
32.32
31.33
30.11
28.86
27.87
27.34
27.32
27.67
28.06
28.11
27.46
25.89
23.37
20.02
16.03
11.67
7.18
2.76
-1.40
-5.18
-8.55
-11.53
-14.30
-17.07
-20.05
-23.37
-27.02
-30.94
-34.96
-39.04
-43.21
-47.55
-51.96
-56.05
-59.14
-60.41
-59.21
-55.35
-49.22
-41.57
-33.29
-25.06
-17.20
-9.74
-2.58
4.37
11.01
17.12
22.50
26.99
30.49
32.96
34.42
34.88
34.48
33.43
32.03
30.62
29.46
28.67
28.26
28.18
28.32
28.59
28.92
29.25
29.52
29.69
29.76
29.75
29.64
29.28
28.44
26.84
24.36
21.09
17.36
13.61
10.18
7.15
4.35
1.51
-1.64
-5.14
-8.84
-12.52
-15.99
-19.20
-22.26
-25.26
-28.21
-31.07
-33.84
-36.64
-39.87
-44.00
-49.27
-55.40
-61.48
-66.16
-68.10
-66.51
-61.48
-53.87
-44.95
-35.94
-27.61
-20.24
-13.69
-7.68
-1.95
3.66
9.21
14.72
20.10
25.16
29.63
33.22
35.80
37.33
37.98
37.97
37.50
36.80
36.05
35.40
34.90
34.52
34.11
33.49
32.54
31.31
29.96
28.72
27.75
27.09
26.69
26.35
25.91
25.17
23.97
22.20
19.74
16.50
12.50
7.88
3.00
-1.68
-5.67
-8.72
-10.89
-12.62
-14.46
-16.84
-19.89
-23.43
-27.04
-30.40
-33.35
-36.04
-38.69
-41.52
-44.55
-47.70
-50.72
-53.33
-55.20
-55.95
-55.18
-52.64
-48.24
-42.22
-35.04
-27.29
-19.57
-12.31
-5.76
0.06
5.24
9.94
14.36
18.61
22.65
26.29
29.20
31.11
31.93
31.85
31.26
30.57
29.94
29.36
28.66
27.81
26.94
26.39
26.42
27.10
28.16
29.12
29.51
29.11
27.95
26.24
24.24
22.07
19.78
17.33
14.76
12.16
9.65
7.29
5.04
2.76
0.25
-2.64
-6.05
-9.95
-14.29
-18.82
-23.32
-27.57
-31.45
-35.00
-38.41
-41.90
-45.60
-49.34
-52.59
-54.62
-54.70
-52.40
-47.77
-41.28
-33.70
-25.78
-18.13
-11.15
-5.09
-0.06
3.99
7.29
10.20
13.15
16.41
19.95
23.48
26.51
28.63
29.74
30.01
29.84
29.66
29.70
29.96
30.24
30.27
29.88
29.11
28.18
27.37
26.90
26.76
26.75
26.54
25.85
24.51
22.52
20.08
17.42
14.73
12.07
9.39
6.47
3.14
-0.70
-4.94
-9.37
-13.71
-17.75
-21.40
-24.75
-27.93
-31.17
-34.71
-38.76
-43.44
-48.62
-53.77
-57.99
-60.21
-59.61
-56.03
-50.12
-43.15
-36.46
-30.93
-26.63
-22.98
-19.14
-14.53
-9.09
-3.19
2.61
7.99
12.89
17.54
22.13
26.70
31.00
34.62
37.23
38.73
39.38
39.62
39.98
40.71
41.72
42.54
42.63
41.64
39.53
36.63
33.37
30.09
26.90
23.69
20.31
16.71
12.98
9.35
5.99
3.03
0.45
-1.87
-4.11
-6.41
-8.79
-11.14
-13.30
-15.13
-16.72
-18.43
-20.67
-23.83
-28.02
-33.05
-38.54
-44.07
-49.37
-54.27
-58.55
-61.86
-63.57
-63.01
-59.68
-53.53
-45.04
-35.22
-25.23
-16.13
-8.52
-2.38
2.74
7.44
12.14
16.88
21.35
25.15
28.04
30.08
31.54
32.78
33.94
34.93
35.48
35.43
34.85
34.06
33.49
33.40
33.76
34.24
34.41
33.98
32.95
31.59
30.28
29.24
28.40
27.42
25.89
23.63
20.68
17.33
13.89
10.50
7.08
3.41
-0.70
-5.32
-10.25
-15.16
-19.68
-23.47
-26.43
-28.69
-30.64
-32.85
-35.82
-39.88
-44.92
-50.46
-55.64
-59.50
-61.17
-60.08
-56.11
-49.65
-41.47
-32.49
-23.55
-15.22
-7.73
-1.08
4.86
10.13
14.75
18.72
22.10
25.01
27.54
29.73
31.50
32.73
33.37
33.54
33.44
33.32
33.36
33.62
34.02
34.44
34.78
34.91
34.75
34.13
32.90
31.01
28.55
25.79
23.08
20.70
18.66
16.64
14.09
10.42
5.30
-1.14
-8.35
-15.52
-21.89
-27.06
-31.06
-34.29
-37.36
-40.86
-45.14
-50.22
-55.81
-61.29
-65.85
-68.58
-68.76
-65.97
-60.26
-52.20
-42.59
-32.46
-22.65
-13.80
-6.09
0.60
6.64
12.41
18.14
23.77
29.04
33.67
37.47
40.39
42.51
43.93
44.69
44.83
44.48
43.86
43.28
43.01
43.15
43.61
44.12
44.36
44.05
42.98
41.07
38.33
34.81
30.57
25.66
20.13
14.12
7.93
1.99
-3.19
-7.28
-10.22
-12.32
-14.08
-16.04
-18.53
-21.60
-25.01
-28.46
-31.73
-34.75
-37.69
-40.79
-44.29
-48.27
-52.62
-57.09
-61.28
-64.70
-66.80
-67.02
-64.90
-60.24
-53.23
-44.51
-35.06
-25.86
-17.67
-10.73
-4.82
0.57
5.98
11.69
17.72
23.81
29.61
34.80
39.21
42.78
45.47
47.34
48.34
48.52
47.93
46.75
45.26
43.73
42.39
41.34
40.50
39.66
38.62
37.21
35.46
33.53
31.63
29.90
28.29
26.56
24.47
21.80
18.57
15.04
11.57
8.47
5.90
3.73
1.65
-0.69
-3.56
-7.07
-11.21
-15.82
-20.61
-25.27
-29.50
-33.13
-36.18
-38.87
-41.58
-44.68
-48.36
-52.58
-57.01
-61.01
-63.78
-64.52
-62.68
-58.14
-51.23
-42.75
-33.63
-24.72
-16.55
-9.25
-2.80
2.93
8.05
12.64
16.83
20.82
24.71
28.47
31.83
34.39
35.81
36.04
35.31
34.07
32.77
31.71
30.90
30.25
29.68
29.18
28.82
28.64
28.53
28.28
27.64
26.50
24.90
23.05
21.13
19.21
17.18
14.82
11.94
8.49
4.57
0.32
-4.15
-8.88
-13.99
-19.52
-25.39
-31.27
-36.83
-41.81
-46.25
-50.44
-54.71
-59.18
-63.58
-67.31
-69.58
-69.72
-67.36
-62.48
-55.38
-46.60
-36.81
-26.64
-16.67
-7.31
1.14
8.51
14.77
19.99
24.35
28.11
31.50
34.69
37.62
40.06
41.72
42.39
42.07
40.97
39.41
37.68
35.90
34.15
32.44
30.85
29.51
28.55
28.03
27.83
27.75
27.52
26.88
25.61
23.63
20.95
17.72
14.19
10.65
7.39
4.64
2.46
0.76
-0.72
-2.31
-4.27
-6.72
-9.56
-12.55
-15.41
-17.94
-20.17
-22.32
-24.70
-27.67
-31.51
-36.35
-42.04
-48.10
-53.73
-57.90
-59.66
-58.41
-54.08
-47.19
-38.62
-29.36
-20.25
-11.82
-4.28
2.33
8.07
13.07
17.49
21.53
25.42
29.27
33.09
36.62
39.45
41.16
41.52
40.63
38.94
37.05
35.54
34.75
34.67
35.00
35.36
35.44
35.12
34.44
33.52
32.46
31.28
30.02
28.69
27.35
25.97
24.41
22.36
19.51
15.71
11.10
6.17
1.55
-2.17
-4.81
-6.58
-8.07
-9.89
-12.45
-15.80
-19.68
-23.66
-27.39
-30.72
-33.68
-36.48
-39.34
-42.44
-45.90
-49.74
-53.91
-58.06
-61.62
-63.80
-63.83
-61.29
-56.24
-49.24
-41.11
-32.64
-24.34
-16.49
-9.20
-2.58
3.30
8.48
13.25
18.02
23.08
28.39
33.47
37.60
40.13
40.90
40.25
38.90
37.56
36.62
36.05
35.56
34.84
33.82
32.70
31.81
31.34
31.25
31.25
30.96
30.15
28.81
27.10
25.18
22.95
20.13
16.42
11.74
6.47
1.38
-2.70
-5.22
-6.25
-6.48
-6.83
-8.10
-10.64
-14.31
-18.64
-23.19
-27.61
-31.80
-35.69
-39.23
-42.38
-45.20
-47.88
-50.72
-53.96
-57.59
-61.15
-63.86
-64.73
-62.94
-58.09
-50.35
-40.49
-29.67
-19.11
-9.69
-1.81
4.66
10.11
14.88
19.01
22.28
24.37
25.18
24.99
24.32
23.72
23.48
23.53
23.62
23.55
23.34
23.26
23.55
24.18
24.82
24.93
24.12
22.34
19.97
17.58
15.70
14.53
13.97
13.64
13.15
12.20
10.71
8.73
6.42
3.95
1.50
-0.81
-2.97
-5.08
-7.34
-9.97
-13.04
-16.44
-19.91
-23.25
-26.49
-29.90
-33.90
-38.71
-44.13
-49.47
-53.77
-56.14
-56.03
-53.38
-48.47
-41.75
-33.69
-24.72
-15.35
-6.23
1.98
8.71
13.70
17.10
19.45
21.41
23.54
26.10
28.96
31.75
34.01
35.39
35.71
34.98
33.36
31.06
28.44
25.85
23.69
22.18
21.33
20.96
20.72
20.32
19.56
18.49
17.25
16.09
15.20
14.68
14.47
14.34
13.95
12.92
10.98
8.05
4.35
0.31
-3.65
-7.23
-10.45
-13.48
-16.58
-19.86
-23.28
-26.70
-30.02
-33.32
-36.80
-40.70
-45.01
-49.32
-52.81
-54.49
-53.62
-50.04
-44.23
-37.09
-29.57
-22.27
-15.40
-8.87
-2.59
3.43
9.02
14.03
18.44
22.38
25.99
29.24
32.00
34.00
35.11
35.39
35.07
34.47
33.80
33.12
32.35
31.32
29.94
28.24
26.41
24.77
23.67
23.39
24.02
25.35
26.93
28.21
28.71
28.17
26.61
24.28
21.47
18.36
14.97
11.25
7.13
2.62
-2.13
-6.94
-11.65
-16.18
-20.42
-24.20
-27.34
-29.70
-31.33
-32.62
-34.17
-36.56
-40.15
-44.92
-50.40
-55.88
-60.56
-63.65
-64.48
-62.59
-57.87
-50.61
-41.54
-31.60
-21.70
-12.49
-4.32
2.78
8.85
13.95
18.10
21.36
23.87
25.91
27.73
29.46
31.02
32.17
32.70
32.49
31.65
30.40
29.09
27.93
27.03
26.40
25.95
25.62
25.35
25.12
24.87
24.44
23.64
22.31
20.42
18.10
15.61
13.23
11.13
9.24
7.35
5.21
2.62
-0.42
-3.76
-7.20
-10.62
-13.99
-17.40
-20.96
-24.73
-28.75
-33.09
-37.81
-42.82
-47.84
-52.25
-55.21
-55.84
-53.64
-48.56
-41.15
-32.27
-22.85
-13.62
-4.98
2.86
9.75
15.54
20.08
23.35
25.54
27.07
28.35
29.69
31.11
32.38
33.17
33.23
32.49
31.13
29.50
27.96
26.78
26.00
25.47
24.96
24.25
23.23
21.94
20.53
19.05
17.49
15.71
13.59
11.11
8.40
5.69
3.18
0.90
-1.36
-3.87
-6.93
-10.59
-14.66
-18.78
-22.60
-25.92
-28.74
-31.29
-33.91
-36.95
-40.70
-45.22
-50.29
-55.31
-59.39
-61.53
-60.95
-57.33
-50.99
-42.77
-33.71
-24.73
-16.43
-9.00
-2.37
3.64
9.17
14.31
19.11
23.57
27.65
31.25
34.22
36.37
37.59
37.87
37.42
36.52
35.52
34.74
34.38
34.43
34.77
35.12
35.16
34.68
33.63
32.13
30.45
28.81
27.33
25.94
24.50
22.82
20.85
18.64
16.28
13.88
11.49
9.06
6.52
3.74
0.64
-2.85
-6.80
-11.19
-15.91
-20.69
-25.21
-29.13
-32.30
-34.89
-37.34
-40.28
-44.25
-49.40
-55.33
-61.03
-65.26
-66.87
-65.23
-60.45
-53.24
-44.62
-35.50
-26.47
-17.81
-9.56
-1.83
5.18
11.28
16.44
20.88
24.96
28.98
32.97
36.57
39.19
40.34
39.89
38.15
35.83
33.72
32.34
31.84
32.01
32.44
32.74
32.70
32.28
31.51
30.47
29.17
27.64
25.84
23.79
21.49
18.97
16.28
13.47
10.64
7.82
5.00
2.14
-0.84
-3.93
-7.13
-10.29
-13.34
-16.28
-19.20
-22.24
-25.52
-29.05
-32.77
-36.59
-40.55
-44.68
-48.92
-52.94
-56.06
-57.38
-56.15
-52.02
-45.29
-36.76
-27.54
-18.59
-10.57
-3.66
2.29
7.55
12.46
17.15
21.60
25.59
28.84
31.06
32.14
32.17
31.39
30.12
28.66
27.22
25.94
24.90
24.17
23.83
23.92
24.36
24.95
25.37
25.34
24.69
23.48
21.89
20.11
18.21
16.15
13.85
11.35
8.88
6.72
5.07
3.89
2.82
1.36
-0.89
-4.02
-7.82
-11.82
-15.67
-19.20
-22.63
-26.44
-31.07
-36.76
-43.25
-49.72
-54.94
-57.63
-56.87
-52.46
-45.04
-35.71
-25.76
-16.11
-7.24
0.75
7.88
14.06
19.13
22.99
25.74
27.68
29.06
29.86
29.65
27.87
24.13
18.71
12.53
6.90
3.05
1.61
2.51
5.09
8.47
11.92
14.98
17.52
19.63
21.42
22.94
24.22
25.19
25.82
26.05
25.84
25.15
23.86
21.87
19.08
15.52
11.36
6.92
2.56
-1.44
-5.00
-8.24
-11.38
-14.64
-18.10
-21.81
-25.73
-29.90
-34.38
-39.28
-44.64
-50.36
-56.09
-61.22
-64.92
-66.37
-64.96
-60.65
-53.90
-45.67
-37.00
-28.68
-21.07
-14.12
-7.61
-1.48
4.16
9.06
13.15
16.64
19.97
23.58
27.65
31.96
36.06
39.52
42.10
43.87
45.07
45.91
46.51
46.82
46.76
46.29
45.47
44.42
43.29
42.12
40.89
39.50
37.81
35.74
33.29
30.58
27.82
25.19
22.82
20.67
18.52
16.13
13.26
9.94
6.33
2.68
-0.85
-4.33
-7.93
-11.85
-16.06
-20.31
-24.23
-27.56
-30.41
-33.17
-36.34
-40.25
-44.89
-49.93
-54.88
-59.27
-62.72
-64.85
-65.25
-63.50
-59.37
-52.95
-44.76
-35.59
-26.36
-17.78
-10.24
-3.83
1.59
6.31
10.58
14.60
18.43
21.94
24.86
26.88
27.82
27.71
26.85
25.66
24.58
23.86
23.59
23.73
24.18
24.85
25.65
26.44
27.00
27.04
26.37
24.95
22.94
20.68
18.50
16.61
14.99
13.39
11.52
9.14
6.27
3.08
-0.11
-3.09
-5.82
-8.45
-11.20
-14.19
-17.33
-20.32
-22.86
-24.89
-26.67
-28.81
-32.03
-36.79
-43.03
-50.10
-56.93
-62.33
-65.33
-65.47
-62.75
-57.56
-50.47
-42.12
-33.04
-23.78
-14.82
-6.60
0.57
6.58
11.58
15.91
19.90
23.79
27.49
30.72
33.12
34.48
34.91
34.74
34.42
34.16
33.92
33.45
32.49
31.00
29.25
27.68
26.65
26.25
26.28
26.41
26.35
25.97
25.30
24.35
23.05
21.24
18.81
15.81
12.47
9.16
6.19
3.70
1.61
-0.32
-2.34
-4.61
-7.18
-9.90
-12.58
-15.04
-17.20
-19.05
-20.82
-22.82
-25.44
-29.01
-33.67
-39.21
-45.02
-50.20
-53.72
-54.71
-52.67
-47.61
-39.99
-30.64
-20.55
-10.62
-1.58
6.11
12.33
17.21
21.10
24.43
27.62
30.92
34.35
37.69
40.54
42.52
43.42
43.27
42.39
41.21
40.12
39.27
38.63
38.02
37.31
36.45
35.52
34.65
33.87
33.14
32.35
31.40
30.22
28.80
27.06
24.88
22.11
18.73
14.85
10.73
6.73
3.12
-0.02
-2.82
-5.52
-8.50
-12.11
-16.57
-21.89
-27.79
-33.73
-39.04
-43.24
-46.26
-48.55
-50.87
-53.92
-57.94
-62.49
-66.53
-68.86
-68.63
-65.54
-59.95
-52.59
-44.24
-35.50
-26.83
-18.59
-11.16
-4.90
0.05
3.88
7.07
10.13
13.30
16.41
18.98
20.53
20.82
20.01
18.49
16.65
14.73
12.80
10.85
8.91
7.19
6.01
5.71
6.50
8.39
11.08
14.06
16.66
18.35
18.86
18.32
17.04
15.36
13.40
11.02
7.93
3.98
-0.69
-5.65
-10.38
-14.42
-17.63
-20.20
-22.56
-25.21
-28.61
-32.92
-38.00
-43.37
-48.33
-52.10
-53.96
-53.43
-50.29
-44.66
-36.91
-27.64
-17.62
-7.61
1.73
9.96
16.94
22.70
27.35
30.94
33.44
34.83
35.17
34.67
33.68
32.59
31.72
31.27
31.26
31.59
32.07
32.53
32.79
32.71
32.21
31.30
30.04
28.49
26.66
24.52
21.99
19.03
15.66
12.00
8.20
4.38
0.55
-3.35
-7.44
-11.75
-16.14
-20.41
-24.36
-27.93
-31.27
-34.68
-38.48
-42.82
-47.60
-52.44
-56.69
-59.60
-60.49
-58.92
-54.88
-48.76
-41.27
-33.18
-25.02
-17.11
-9.55
-2.32
4.50
10.81
16.52
21.64
26.27
30.41
33.90
36.46
37.73
37.53
35.94
33.31
30.07
26.68
23.51
20.92
19.22
18.65
19.31
21.04
23.53
26.35
29.12
31.53
33.36
34.40
34.45
33.35
31.08
27.80
23.87
19.69
15.65
12.00
8.85
6.10
3.52
0.81
-2.37
-6.23
-10.82
-15.94
-21.27
-26.47
-31.32
-35.80
-40.13
-44.63
-49.52
-54.75
-59.85
-63.90
-65.81
-64.74
-60.42
-53.27
-44.21
-34.30
-24.36
-14.84
-5.94
2.22
9.50
15.75
21.02
25.54
29.69
33.77
37.74
41.29
43.99
45.58
46.06
45.75
45.03
44.19
43.34
42.47
41.48
40.31
39.01
37.70
36.53
35.63
35.02
34.56
33.95
32.81
30.83
27.81
23.84
19.18
14.29
9.54
5.24
1.49
-1.78
-4.67
-7.28
-9.71
-12.05
-14.47
-17.18
-20.27
-23.68
-27.17
-30.42
-33.26
-35.76
-38.27
-41.30
-45.22
-50.05
-55.36
-60.18
-63.27
-63.47
-60.03
-52.97
-43.11
-31.84
-20.69
-10.75
-2.47
4.36
10.22
15.57
20.58
25.18
29.21
32.57
35.21
37.12
38.23
38.49
37.94
36.79
35.29
33.70
32.06
30.28
28.22
25.89
23.52
21.47
20.01
19.16
18.63
17.92
16.54
14.26
11.13
7.46
3.67
0.15
-2.91
-5.54
-7.97
-10.46
-13.26
-16.37
-19.68
-22.96
-25.98
-28.71
-31.33
-34.14
-37.48
-41.53
-46.28
-51.41
-56.44
-60.71
-63.53
-64.27
-62.43
-57.80
-50.54
-41.18
-30.50
-19.44
-8.76
0.98
9.50
16.75
22.84
27.88
32.01
35.33
37.78
39.25
39.57
38.78
37.13
35.19
33.67
33.09
33.60
34.96
36.64
38.09
38.89
38.80
37.77
35.83
33.12
29.89
26.52
23.42
20.96
19.33
18.51
18.23
18.13
17.78
16.84
15.18
12.93
10.44
8.10
6.24
4.92
3.85
2.51
0.40
-2.81
-7.08
-12.09
-17.41
-22.70
-27.94
-33.39
-39.39
-46.12
-53.33
-60.29
-65.95
-69.27
-69.51
-66.46
-60.37
-51.88
-41.69
-30.58
-19.31
-8.68
0.52
7.80
13.08
16.84
20.01
23.47
27.66
32.33
36.63
39.56
40.46
39.39
37.02
34.37
32.25
30.98
30.33
29.86
29.11
27.94
26.37
24.50
22.35
19.81
16.89
13.75
10.75
8.13
5.78
3.13
-0.54
-5.66
-11.93
-18.41
-23.85
-27.35
-28.70
-28.33
-26.95
-25.11
-22.99
-20.50
-17.68
-14.93
-12.91
-12.29
-13.35
-15.85
-19.14
-22.48
-25.42
-27.93
-30.37
-33.18
-36.66
-40.69
-44.68
-47.76
-48.98
-47.62
-43.37
-36.45
-27.56
-17.67
-7.84
1.05
8.48
14.34
18.88
22.48
25.40
27.61
28.91
29.12
28.31
26.85
25.32
24.15
23.48
23.03
22.40
21.20
19.38
17.17
14.97
13.13
11.89
11.29
11.25
11.54
11.89
11.99
11.62
10.71
9.37
7.83
6.32
5.02
3.94
3.00
2.03
0.86
-0.71
-2.85
-5.66
-9.11
-12.95
-16.85
-20.41
-23.48
-26.14
-28.74
-31.71
-35.42
-39.94
-45.01
-49.99
-54.02
-56.22
-55.90
-52.84
-47.23
-39.66
-30.94
-21.81
-12.87
-4.48
3.15
9.89
15.71
20.59
24.57
27.69
30.08
31.82
33.02
33.80
34.29
34.56
34.70
34.73
34.73
34.74
34.80
34.86
34.80
34.44
33.65
32.44
30.96
29.42
27.96
26.54
24.96
23.06
20.76
18.18
15.52
12.96
10.54
8.15
5.60
2.79
-0.26
-3.47
-6.72
-10.01
-13.44
-17.15
-21.20
-25.46
-29.66
-33.58
-37.13
-40.45
-43.87
-47.66
-51.75
-55.61
-58.31
-58.86
-56.61
-51.44
-43.93
-35.01
-25.73
-16.89
-8.91
-1.87
4.32
9.85
14.84
19.31
23.27
26.74
29.77
32.40
34.59
36.24
37.16
37.21
36.43
35.09
33.61
32.42
31.76
31.64
31.71
31.56
30.78
29.22
27.02
24.52
22.12
20.14
18.62
17.32
15.92
14.15
11.97
9.68
7.67
6.26
5.51
5.20
4.96
4.52
3.71
2.52
0.96
-1.04
-3.61
-6.84
-10.68
-14.89
-19.10
-23.03
-26.55
-29.80
-33.14
-36.94
-41.45
-46.59
-51.86
-56.51
-59.63
-60.53
-58.86
-54.69
-48.43
-40.68
-32.05
-23.13
-14.45
-6.48
0.43
6.11
10.61
14.16
17.07
19.58
21.83
23.84
25.54
26.81
27.58
27.84
27.68
27.29
26.96
26.98
27.54
28.62
30.04
31.44
32.43
32.70
32.09
30.63
28.48
25.89
23.09
20.27
17.53
14.93
12.44
10.02
7.54
4.91
2.06
-0.99
-4.16
-7.30
-10.32
-13.18
-15.87
-18.48
-21.03
-23.51
-25.95
-28.34
-30.80
-33.45
-36.44
-39.84
-43.65
-47.66
-51.48
-54.44
-55.71
-54.57
-50.68
-44.18
-35.76
-26.41
-17.08
-8.42
-0.70
6.09
12.11
17.46
22.17
26.23
29.58
32.25
34.25
35.54
36.09
35.84
34.86
33.40
31.82
30.56
29.95
30.07
30.67
31.33
31.65
31.39
30.54
29.23
27.58
25.64
23.32
20.58
17.49
14.22
10.91
7.70
4.54
1.29
-2.17
-5.90
-9.89
-14.01
-18.10
-22.02
-25.64
-28.89
-31.73
-34.21
-36.46
-38.64
-40.99
-43.70
-46.87
-50.36
-53.70
-56.19
-56.96
-55.35
-51.13
-44.66
-36.70
-28.15
-19.78
-11.99
-4.90
1.49
7.21
12.24
16.59
20.35
23.68
26.73
29.50
31.86
33.57
34.52
34.74
34.46
33.96
33.52
33.24
33.12
33.01
32.74
32.18
31.25
29.93
28.32
26.57
24.90
23.52
22.53
21.83
21.17
20.15
18.45
15.94
12.75
9.26
5.90
3.00
0.65
-1.31
-3.23
-5.45
-8.18
-11.48
-15.25
-19.27
-23.26
-27.00
-30.42
-33.60
-36.79
-40.31
-44.37
-48.87
-53.34
-57.02
-59.02
-58.64
-55.53
-49.84
-42.12
-33.17
-23.83
-14.84
-6.73
0.24
6.07
10.90
14.99
18.54
21.72
24.65
27.33
29.69
31.61
32.95
33.64
33.72
33.35
32.71
31.97
31.22
30.54
30.04
29.84
30.01
30.46
30.87
30.85
30.12
28.69
26.91
25.26
24.08
23.30
22.52
21.17
18.91
15.80
12.25
8.83
5.98
3.73
1.76
-0.40
-3.14
-6.60
-10.68
-15.19
-19.94
-24.79
-29.64
-34.35
-38.74
-42.68
-46.16
-49.30
-52.36
-55.46
-58.51
-61.01
-62.23
-61.39
-58.01
-52.09
-44.19
-35.23
-26.16
-17.78
-10.46
-4.22
1.17
6.01
10.57
15.03
19.46
23.77
27.75
31.02
33.17
33.91
33.26
31.63
29.67
28.03
27.18
27.21
27.93
28.98
30.00
30.67
30.78
30.19
28.84
26.88
24.59
22.41
20.66
19.48
18.68
17.93
16.89
15.37
13.33
10.84
7.96
4.71
1.07
-2.92
-7.16
-11.54
-15.94
-20.36
-24.86
-29.57
-34.67
-40.20
-46.09
-52.03
-57.47
-61.67
-63.82
-63.33
-59.94
-53.99
-46.21
-37.64
-29.20
-21.54
-14.84
-8.98
-3.73
1.12
5.63
9.88
13.99
18.12
22.38
26.66
30.61
33.73
35.56
36.07
35.54
34.56
33.65
33.02
32.56
31.98
31.08
29.99
29.00
28.45
28.44
28.70
28.73
28.03
26.33
23.71
20.47
17.03
13.62
10.35
7.10
3.71
0.03
-4.02
-8.34
-12.70
-16.80
-20.43
-23.57
-26.36
-29.12
-32.15
-35.69
-39.87
-44.65
-49.79
-54.78
-58.90
-61.30
-61.25
-58.35
-52.66
-44.74
-35.46
-25.83
-16.71
-8.66
-1.85
3.90
8.98
13.82
18.64
23.47
28.08
32.19
35.53
38.00
39.63
40.56
41.00
41.18
41.30
41.50
41.85
42.24
42.51
42.44
41.81
40.53
38.62
36.19
33.48
30.70
28.07
25.64
23.40
21.22
18.96
16.52
13.83
10.84
7.55
4.01
0.33
-3.30
-6.74
-9.98
-13.12
-16.28
-19.52
-22.78
-25.91
-28.90
-31.88
-35.15
-39.00
-43.50
-48.51
-53.60
-58.26
-61.93
-64.06
-64.12
-61.66
-56.51
-48.90
-39.51
-29.27
-19.18
-9.94
-1.91
4.90
10.72
15.81
20.42
24.72
28.77
32.52
35.84
38.55
40.49
41.65
42.17
42.29
42.24
42.14
42.00
41.76
41.33
40.63
39.61
38.15
36.10
33.30
29.75
25.65
21.40
17.55
14.45
12.18
10.44
8.75
6.66
3.96
0.78
-2.49
-5.48
-8.01
-10.18
-12.27
-14.55
-17.12
-19.86
-22.51
-24.80
-26.61
-28.05
-29.44
-31.21
-33.72
-37.15
-41.38
-45.97
-50.26
-53.44
-54.85
-54.02
-50.86
-45.60
-38.71
-30.76
-22.34
-13.96
-6.02
1.20
7.55
12.98
17.50
21.17
24.12
26.45
28.31
29.84
31.13
32.25
33.22
33.98
34.52
34.79
34.76
34.44
33.87
33.12
32.30
31.50
30.78
30.04
29.09
27.72
25.80
23.35
20.54
17.60
14.68
11.74
8.70
5.40
1.79
-2.01
-5.83
-9.53
-13.03
-16.43
-19.92
-23.60
-27.48
-31.39
-35.09
-38.40
-41.26
-43.84
-46.39
-49.07
-51.77
-54.08
-55.32
-54.84
-52.23
-47.47
-40.95
-33.28
-25.07
-16.85
-8.92
-1.55
5.14
10.98
15.87
19.87
23.14
26.03
28.85
31.81
34.84
37.63
39.70
40.70
40.54
39.50
38.11
36.88
36.17
35.95
35.96
35.86
35.41
34.57
33.48
32.26
30.91
29.25
27.01
24.01
20.31
16.27
12.37
9.04
6.39
4.20
2.01
-0.66
-4.03
-8.00
-12.22
-16.24
-19.74
-22.66
-25.15
-27.49
-29.92
-32.52
-35.29
-38.17
-41.22
-44.57
-48.36
-52.47
-56.40
-59.28
-60.07
-57.98
-52.82
-45.06
-35.69
-25.89
-16.67
-8.58
-1.76
4.00
9.05
13.63
17.89
21.80
25.25
28.16
30.47
32.18
33.32
33.88
33.85
33.24
32.14
30.77
29.47
28.56
28.25
28.51
29.08
29.59
29.69
29.17
28.05
26.50
24.75
23.00
21.31
19.69
18.09
16.53
15.02
13.56
12.05
10.35
8.30
5.75
2.66
-0.92
-4.81
-8.78
-12.59
-16.07
-19.17
-21.95
-24.54
-27.22
-30.19
-33.66
-37.72
-42.30
-47.11
-51.64
-55.16
-56.87
-56.10
-52.54
-46.40
-38.41
-29.63
-21.14
-13.72
-7.62
-2.67
1.64
5.78
10.05
14.41
18.61
22.33
25.35
27.56
29.01
29.81
30.10
29.96
29.48
28.76
27.94
27.19
26.63
26.26
25.92
25.39
24.44
22.99
21.16
19.15
17.18
15.32
13.51
11.60
9.50
7.27
5.05
2.97
1.09
-0.68
-2.50
-4.55
-6.96
-9.84
-13.22
-17.09
-21.36
-25.92
-30.57
-35.17
-39.64
-43.94
-48.14
-52.31
-56.42
-60.31
-63.56
-65.50
-65.35
-62.57
-56.98
-49.02
-39.59
-29.74
-20.44
-12.29
-5.53
-0.09
4.28
7.98
11.45
15.11
19.19
23.57
27.88
31.57
34.20
35.61
36.02
35.76
35.25
34.72
34.31
34.06
34.01
34.23
34.75
35.49
36.28
36.84
36.94
36.51
35.63
34.52
33.37
32.19
30.78
28.79
25.94
22.25
18.13
14.22
11.11
9.01
7.62
6.26
4.21
1.02
-3.27
-8.22
-13.24
-17.87
-22.01
-25.83
-29.70
-33.98
-38.84
-44.27
-50.00
-55.60
-60.46
-63.87
-65.17
-63.86
-59.79
-53.21
-44.77
-35.32
-25.76
-16.74
-8.63
-1.54
4.65
10.06
14.84
19.11
22.92
26.29
29.10
31.19
32.35
32.50
31.74
30.34
28.63
26.94
25.50
24.44
23.89
23.93
24.57
25.66
26.83
27.63
27.69
26.88
25.28
23.20
20.94
18.64
16.28
13.75
11.01
8.18
5.50
3.17
1.23
-0.51
-2.40
-4.78
-7.78
-11.28
-14.91
-18.31
-21.23
-23.67
-25.83
-28.05
-30.70
-34.01
-38.13
-42.96
-48.09
-52.81
-56.18
-57.26
-55.44
-50.61
-43.27
-34.34
-24.86
-15.77
-7.68
-0.89
4.59
8.91
12.37
15.31
18.09
20.90
23.74
26.41
28.58
30.01
30.62
30.52
29.99
29.22
28.31
27.26
26.02
24.68
23.46
22.63
22.31
22.32
22.21
21.43
19.58
16.67
13.08
9.45
6.29
3.83
1.94
0.20
-1.83
-4.38
-7.43
-10.74
-14.01
-17.03
-19.84
-22.61
-25.58
-28.83
-32.32
-35.87
-39.34
-42.74
-46.18
-49.69
-52.94
-55.22
-55.61
-53.37
-48.35
-41.05
-32.50
-23.75
-15.58
-8.23
-1.64
4.35
9.77
14.49
18.42
21.65
24.48
27.23
30.07
32.80
35.08
36.51
36.90
36.41
35.41
34.36
33.56
33.07
32.74
32.35
31.67
30.60
29.14
27.36
25.33
23.06
20.58
17.93
15.18
12.46
9.87
7.50
5.41
3.64
2.08
0.59
-1.14
-3.42
-6.44
-10.08
-14.03
-17.82
-21.06
-23.62
-25.77
-27.97
-30.77
-34.50
-39.19
-44.41
-49.51
-53.60
-55.81
-55.45
-52.22
-46.27
-38.21
-28.94
-19.43
-10.47
-2.57
4.14
9.77
14.61
18.92
22.86
26.48
29.71
32.44
34.51
35.82
36.32
36.05
35.11
33.68
32.03
30.40
29.02
28.01
27.37
26.98
26.73
26.51
26.26
25.87
25.16
23.99
22.35
20.43
18.57
17.10
16.11
15.41
14.60
13.29
11.33
8.90
6.33
3.88
1.56
-0.82
-3.61
-6.98
-10.88
-15.00
-19.01
-22.61
-25.75
-28.55
-31.32
-34.40
-38.05
-42.40
-47.39
-52.79
-58.14
-62.74
-65.74
-66.29
-63.81
-58.24
-50.13
-40.50
-30.54
-21.22
-13.03
-5.97
0.27
6.05
11.59
16.90
21.79
26.04
29.41
31.77
33.17
33.79
33.98
34.14
34.51
35.17
35.99
36.76
37.30
37.48
37.25
36.57
35.45
33.88
31.94
29.73
27.44
25.26
23.35
21.78
20.49
19.25
17.76
15.78
13.26
10.34
7.31
4.41
1.70
-0.98
-3.88
-7.14
-10.63
-14.07
-17.14
-19.68
-21.78
-23.76
-25.96
-28.64
-31.90
-35.73
-39.98
-44.50
-48.99
-52.97
-55.79
-56.74
-55.27
-51.13
-44.56
-36.23
-27.07
-17.94
-9.55
-2.22
3.98
9.19
13.56
17.20
20.24
22.73
24.76
26.41
27.75
28.85
29.80
30.66
31.50
32.31
32.97
33.37
33.40
33.10
32.56
31.88
31.10
30.06
28.61
26.64
24.22
21.56
18.95
16.57
14.40
12.21
9.78
6.93
3.74
0.45
-2.66
-5.37
-7.72
-9.94
-12.41
-15.44
-19.07
-23.08
-26.98
-30.36
-33.02
-35.17
-37.25
-39.79
-43.07
-46.90
-50.70
-53.68
-55.09
-54.45
-51.61
-46.71
-40.03
-31.93
-22.91
-13.51
-4.39
3.81
10.63
15.92
19.86
22.86
25.44
27.93
30.44
32.76
34.55
35.52
35.55
34.76
33.42
31.90
30.52
29.53
29.04
29.10
29.63
30.39
31.06
31.29
30.75
29.29
26.99
24.18
21.29
18.73
16.69
15.13
13.75
12.24
10.37
8.15
5.74
3.30
0.86
-1.71
-4.61
-7.93
-11.61
-15.39
-18.98
-22.13
-24.76
-26.98
-28.98
-30.99
-33.28
-36.02
-39.37
-43.29
-47.53
-51.59
-54.74
-56.24
-55.48
-52.19
-46.49
-38.89
-30.15
-21.03
-12.25
-4.29
2.59
8.38
13.21
17.37
21.10
24.54
27.64
30.20
31.92
32.63
32.37
31.42
30.19
29.09
28.37
28.14
28.33
28.85
29.56
30.33
30.92
31.11
30.69
29.57
27.83
25.77
23.76
22.13
21.02
20.32
19.78
19.04
17.79
15.86
13.23
10.02
6.43
2.65
-1.15
-4.90
-8.57
-12.27
-16.07
-20.06
-24.17
-28.19
-31.82
-34.86
-37.31
-39.49
-41.90
-44.98
-48.89
-53.32
-57.51
-60.56
-61.62
-60.17
-56.08
-49.62
-41.32
-31.89
-22.11
-12.70
-4.27
2.87
8.66
13.33
17.17
20.48
23.50
26.22
28.55
30.33
31.46
31.94
31.93
31.68
31.37
31.01
30.42
29.35
27.63
25.34
22.83
20.56
18.89
17.84
17.19
16.55
15.63
14.32
12.72
10.97
9.20
7.40
5.53
3.53
1.42
-0.74
-2.88
-5.05
-7.37
-10.09
-13.41
-17.34
-21.62
-25.77
-29.31
-32.04
-34.12
-36.10
-38.62
-42.08
-46.35
-50.71
-54.06
-55.31
-53.76
-49.37
-42.68
-34.58
-25.94
-17.40
-9.25
-1.56
5.61
12.03
17.46
21.65
24.63
26.70
28.30
29.82
31.37
32.79
33.75
33.96
33.36
32.17
30.85
29.86
29.48
29.69
30.18
30.50
30.26
29.31
27.72
25.76
23.71
21.68
19.66
17.58
15.38
13.18
11.10
9.20
7.42
5.52
3.29
0.61
-2.39
-5.55
-8.64
-11.59
-14.44
-17.31
-20.29
-23.41
-26.63
-29.88
-33.14
-36.46
-39.94
-43.72
-47.78
-51.87
-55.40
-57.56
-57.51
-54.70
-49.16
-41.49
-32.66
-23.69
-15.28
-7.74
-1.10
4.70
9.67
13.70
16.78
19.08
20.94
22.79
24.83
26.92
28.65
29.53
29.24
27.82
25.69
23.49
21.92
21.50
22.46
24.69
27.75
30.95
33.52
34.76
34.34
32.37
29.39
26.16
23.35
21.37
20.26
19.76
19.53
19.31
18.92
18.24
17.12
15.39
12.87
9.54
5.57
1.25
-3.09
-7.27
-11.25
-15.07
-18.82
-22.57
-26.41
-30.45
-34.83
-39.62
-44.77
-50.03
-54.94
-58.85
-61.08
-61.05
-58.47
-53.47
-46.57
-38.52
-30.11
-21.94
-14.35
-7.36
-0.92
5.04
10.51
15.40
19.60
23.11
25.97
28.23
29.88
30.81
30.92
30.20
28.81
27.12
25.56
24.45
23.97
23.92
23.99
23.83
23.26
22.30
21.13
19.98
19.01
18.19
17.40
16.46
15.26
13.72
11.83
9.66
7.34
4.97
2.68
0.51
-1.62
-3.90
-6.49
-9.47
-12.73
-16.08
-19.32
-22.34
-25.22
-28.16
-31.36
-34.98
-39.05
-43.35
-47.40
-50.45
-51.61
-50.17
-45.83
-38.93
-30.35
-21.26
-12.71
-5.37
0.58
5.35
9.38
13.09
16.81
20.64
24.48
28.02
30.96
33.04
34.17
34.43
34.06
33.35
32.52
31.75
31.11
30.57
30.04
29.37
28.49
27.39
26.18
25.01
23.96
23.02
22.00
20.68
18.84
16.36
13.20
9.50
5.47
1.43
-2.28
-5.32
-7.56
-9.05
-10.03
-10.93
-12.11
-13.85
-16.22
-19.17
-22.60
-26.39
-30.46
-34.81
-39.45
-44.40
-49.52
-54.42
-58.42
-60.73
-60.72
-58.13
-53.12
-46.25
-38.10
-29.26
-20.15
-11.16
-2.72
4.82
11.23
16.57
21.12
25.31
29.34
33.13
36.30
38.29
38.77
37.74
35.55
32.80
30.05
27.71
25.89
24.56
23.68
23.25
23.39
24.12
25.26
26.46
27.30
27.46
26.97
26.05
25.02
24.05
23.04
21.70
19.76
17.13
14.06
10.91
8.06
5.67
3.59
1.50
-0.99
-4.12
-7.85
-11.98
-16.19
-20.22
-24.02
-27.77
-31.75
-36.24
-41.34
-46.91
-52.50
-57.37
-60.70
-61.80
-60.26
-56.16
-50.00
-42.52
-34.48
-26.40
-18.65
-11.41
-4.80
1.04
6.09
10.47
14.45
18.36
22.33
26.23
29.69
32.31
33.87
34.43
34.27
33.76
33.19
32.68
32.22
31.79
31.43
31.26
31.39
31.85
32.47
32.92
32.87
32.17
30.90
29.41
28.09
27.16
26.52
25.79
24.47
22.20
18.93
14.99
10.84
6.93
3.51
0.54
-2.25
-5.14
-8.26
-11.57
-14.86
-17.93
-20.77
-23.61
-26.75
-30.46
-34.73
-39.36
-44.00
-48.40
-52.42
-56.01
-59.00
-61.00
-61.34
-59.40
-54.85
-47.88
-39.20
-29.83
-20.73
-12.54
-5.46
0.64
6.04
10.97
15.46
19.31
22.31
24.32
25.42
25.83
25.88
25.80
25.66
25.44
25.11
24.74
24.52
24.68
25.37
26.50
27.79
28.82
29.27
29.00
28.10
26.78
25.28
23.73
22.09
20.21
17.93
15.14
11.95
8.59
5.43
2.78
0.74
-0.87
-2.46
-4.51
-7.33
-10.98
-15.19
-19.53
-23.63
-27.30
-30.67
-33.98
-37.54
-41.51
-45.78
-49.98
-53.54
-55.85
-56.41
-54.95
-51.48
-46.28
-39.77
-32.42
-24.68
-16.94
-9.47
-2.45
4.01
9.94
15.39
20.38
24.84
28.65
31.68
33.83
35.12
35.70
35.76
35.51
35.13
34.70
34.20
33.52
32.57
31.37
30.10
29.10
28.62
28.74
29.18
29.47
29.13
27.91
25.90
23.44
20.89
18.40
15.95
13.41
10.69
7.88
5.14
2.66
0.47
-1.59
-3.76
-6.32
-9.40
-12.98
-16.85
-20.70
-24.27
-27.46
-30.35
-33.21
-36.35
-39.99
-44.15
-48.69
-53.25
-57.35
-60.42
-61.88
-61.32
-58.57
-53.77
-47.39
-40.01
-32.28
-24.66
-17.46
-10.80
-4.65
1.08
6.52
11.79
16.86
21.57
25.64
28.77
30.83
31.91
32.29
32.40
32.50
32.63
32.62
32.24
31.40
30.29
29.31
28.88
29.18
30.01
30.91
31.40
31.24
30.59
29.78
29.12
28.61
27.98
26.82
24.90
22.27
19.32
16.54
14.29
12.68
11.53
10.46
9.05
6.93
3.90
-0.02
-4.61
-9.54
-14.51
-19.26
-23.71
-27.90
-31.89
-35.83
-39.81
-44.00
-48.47
-53.19
-57.91
-62.09
-64.99
-65.84
-64.15
-59.86
-53.36
-45.39
-36.79
-28.38
-20.77
-14.43
-9.59
-6.16
-3.70
-1.48
1.32
5.26
10.25
15.48
19.71
21.87
21.63
19.86
18.25
18.64
21.99
27.81
34.24
38.77
39.44
35.87
29.45
23.02
19.79
22.47
32.21
48.12
66.88
83.14
90.51
83.43
59.45
20.99
-24.28
-65.24
-91.09
-95.35
-78.47
-47.54
-13.21
14.70
30.55
33.99
28.41
18.20
6.44
-5.81
-18.68
-32.07
-44.74
-54.72
-60.38
-61.38
-58.98
-55.20
-51.81
-49.48
-47.58
-44.71
-39.51
-31.45
-21.07
-9.91
0.18
7.75
12.30
14.42
15.50
17.07
20.12
24.70
29.96
34.57
37.35
37.67
35.73
32.41
28.95
26.44
25.52
26.21
27.91
29.73
30.86
30.89
29.89
28.30
26.61
25.12
23.77
22.36
20.64
18.52
16.11
13.63
11.28
9.15
7.20
5.28
3.15
0.59
-2.54
-6.20
-10.19
-14.22
-18.01
-21.46
-24.59
-27.52
-30.34
-33.11
-35.92
-38.91
-42.23
-45.96
-49.86
-53.31
-55.45
-55.43
-52.74
-47.40
-40.07
-31.76
-23.50
-15.99
-9.48
-3.77
1.57
6.92
12.37
17.73
22.61
26.62
29.52
31.27
32.08
32.20
31.91
31.40
30.69
29.75
28.53
27.12
25.76
24.81
24.54
24.97
25.80
26.48
26.52
25.70
24.17
22.37
20.78
19.62
18.78
17.92
16.65
14.71
12.19
9.42
6.78
4.55
2.73
1.07
-0.75
-2.94
-5.48
-8.19
-10.91
-13.65
-16.59
-19.93
-23.70
-27.66
-31.50
-35.01
-38.37
-41.99
-46.18
-50.79
-55.04
-57.70
-57.64
-54.31
-47.99
-39.67
-30.61
-21.83
-13.82
-6.59
0.07
6.40
12.39
17.82
22.43
26.10
28.90
31.05
32.77
34.09
34.90
34.98
34.21
32.71
30.84
29.09
27.86
27.36
27.51
28.01
28.47
28.59
28.24
27.44
26.36
25.12
23.79
22.27
20.39
17.99
15.05
11.69
8.15
4.73
1.67
-0.99
-3.37
-5.71
-8.24
-11.05
-14.14
-17.34
-20.51
-23.57
-26.56
-29.61
-32.82
-36.21
-39.70
-43.19
-46.63
-49.93
-52.91
-55.16
-56.06
-54.94
-51.36
-45.39
-37.68
-29.22
-21.01
-13.69
-7.42
-1.99
3.00
7.79
12.42
16.75
20.58
23.82
26.45
28.59
30.32
31.65
32.48
32.64
32.01
30.67
28.80
26.78
24.94
23.54
22.68
22.29
22.21
22.24
22.13
21.62
20.51
18.71
16.29
13.47
10.51
7.58
4.72
1.83
-1.18
-4.34
-7.59
-10.82
-13.93
-16.89
-19.69
-22.39
-25.02
-27.69
-30.52
-33.71
-37.39
-41.54
-45.89
-49.89
-52.81
-53.94
-52.77
-49.11
-43.12
-35.31
-26.35
-17.01
-8.04
0.02
6.86
12.47
17.07
21.00
24.59
28.07
31.48
34.72
37.55
39.72
40.96
41.11
40.20
38.43
36.21
34.03
32.31
31.24
30.71
30.34
29.72
28.57
26.92
25.04
23.27
21.87
20.83
19.96
18.99
17.73
16.17
14.39
12.50
10.53
8.42
6.05
3.31
0.15
-3.39
-7.26
-11.37
-15.58
-19.77
-23.80
-27.57
-31.05
-34.32
-37.55
-40.97
-44.85
-49.34
-54.38
-59.60
-64.21
-67.17
-67.50
-64.62
-58.63
-50.22
-40.53
-30.62
-21.29
-12.91
-5.54
0.89
6.46
11.25
15.40
19.08
22.55
25.95
29.29
32.37
34.90
36.64
37.48
37.55
37.14
36.60
36.22
36.11
36.22
36.37
36.43
36.34
36.13
35.86
35.56
35.16
34.61
33.79
32.66
31.18
29.42
27.45
25.37
23.27
21.08
18.68
15.88
12.56
8.78
4.71
0.72
-2.99
-6.30
-9.36
-12.37
-15.55
-18.96
-22.50
-26.01
-29.35
-32.60
-35.97
-39.79
-44.27
-49.37
-54.66
-59.40
-62.68
-63.75
-62.19
-58.01
-51.59
-43.50
-34.39
-24.93
-15.72
-7.34
-0.18
5.60
10.14
13.81
17.03
20.15
23.29
26.37
29.12
31.25
32.53
32.85
32.30
31.13
29.66
28.20
26.91
25.85
24.94
24.17
23.56
23.21
23.12
23.23
23.27
22.95
22.02
20.40
18.12
15.37
12.34
9.14
5.86
2.46
-1.07
-4.64
-8.06
-11.12
-13.66
-15.76
-17.68
-19.82
-22.51
-25.85
-29.72
-33.94
-38.37
-42.98
-47.76
-52.41
-56.26
-58.32
-57.67
-53.84
-47.07
-38.25
-28.61
-19.27
-10.89
-3.65
2.69
8.42
13.73
18.57
22.77
26.22
28.91
30.98
32.61
33.95
35.04
35.84
36.29
36.39
36.16
35.71
35.10
34.33
33.39
32.23
30.83
29.19
27.36
25.45
23.60
21.89
20.34
18.84
17.19
15.22
12.79
9.94
6.80
3.57
0.39
-2.72
-5.85
-9.13
-12.66
-16.44
-20.39
-24.39
-28.30
-32.12
-35.91
-39.74
-43.70
-47.65
-51.23
-53.91
-55.10
-54.34
-51.46
-46.58
-40.06
-32.37
-23.91
-15.03
-6.05
2.70
10.78
17.82
23.55
27.97
31.23
33.63
35.39
36.59
37.24
37.35
37.01
36.44
35.82
35.23
34.53
33.47
31.82
29.56
26.95
24.42
22.36
20.99
20.25
19.84
19.39
18.56
17.17
15.15
12.58
9.68
6.69
3.88
1.40
-0.80
-2.96
-5.40
-8.38
-12.01
-16.15
-20.53
-24.90
-29.08
-33.01
-36.67
-40.11
-43.38
-46.65
-50.16
-54.06
-58.27
-62.22
-64.96
-65.43
-62.89
-57.21
-49.02
-39.42
-29.64
-20.57
-12.57
-5.58
0.67
6.45
11.81
16.65
20.87
24.41
27.39
30.01
32.40
34.55
36.25
37.27
37.47
36.96
36.05
35.18
34.58
34.24
33.84
33.01
31.49
29.32
26.87
24.64
23.01
22.05
21.43
20.62
19.09
16.64
13.44
10.04
7.03
4.80
3.39
2.43
1.39
-0.20
-2.58
-5.68
-9.24
-12.97
-16.72
-20.48
-24.32
-28.29
-32.29
-36.17
-39.83
-43.32
-46.76
-50.18
-53.27
-55.36
-55.61
-53.34
-48.44
-41.40
-33.16
-24.73
-16.80
-9.62
-3.13
2.87
8.48
13.66
18.38
22.66
26.55
30.11
33.26
35.79
37.51
38.26
38.01
36.87
35.08
32.95
30.87
29.23
28.31
28.08
28.27
28.40
27.95
26.66
24.51
21.73
18.68
15.59
12.62
9.79
7.13
4.59
2.17
-0.15
-2.39
-4.55
-6.69
-8.89
-11.26
-13.88
-16.69
-19.48
-22.01
-24.15
-26.07
-28.19
-31.01
-34.80
-39.45
-44.47
-49.09
-52.50
-54.04
-53.33
-50.28
-45.05
-38.12
-30.15
-21.92
-14.14
-7.33
-1.65
3.07
7.22
11.24
15.45
19.95
24.62
29.14
33.11
36.12
37.91
38.39
37.71
36.16
34.11
31.89
29.77
27.90
26.35
25.14
24.24
23.60
23.12
22.67
22.15
21.45
20.54
19.45
18.24
16.92
15.45
13.72
11.63
9.17
6.46
3.71
1.13
-1.14
-3.08
-4.84
-6.62
-8.59
-10.86
-13.43
-16.19
-18.99
-21.68
-24.21
-26.66
-29.22
-32.11
-35.48
-39.37
-43.64
-47.94
-51.77
-54.51
-55.58
-54.56
-51.27
-45.94
-39.05
-31.33
-23.51
-16.17
-9.63
-3.84
1.47
6.62
11.82
17.05
22.02
26.28
29.49
31.54
32.59
33.00
33.13
33.25
33.42
33.60
33.70
33.70
33.56
33.25
32.78
32.15
31.47
30.79
30.18
29.60
28.94
28.09
26.97
25.58
23.89
21.84
19.36
16.41
13.10
9.66
6.44
3.74
1.68
0.14
-1.21
-2.73
-4.76
-7.48
-10.85
-14.71
-18.77
-22.76
-26.55
-30.09
-33.50
-36.92
-40.40
-43.94
-47.47
-50.95
-54.27
-57.24
-59.45
-60.34
-59.26
-55.76
-49.79
-41.74
-32.37
-22.60
-13.20
-4.70
2.65
8.80
13.84
17.86
20.96
23.31
25.07
26.46
27.69
28.84
29.91
30.74
31.15
31.04
30.40
29.40
28.32
27.34
26.60
26.05
25.57
25.02
24.26
23.28
22.11
20.86
19.55
18.10
16.33
14.09
11.33
8.22
5.12
2.36
0.10
-1.82
-3.76
-6.11
-9.08
-12.59
-16.35
-20.06
-23.52
-26.72
-29.73
-32.67
-35.57
-38.48
-41.46
-44.57
-47.77
-50.82
-53.17
-54.08
-52.83
-49.00
-42.69
-34.51
-25.46
-16.52
-8.44
-1.48
4.48
9.77
14.66
19.27
23.49
27.13
30.02
32.01
33.07
33.24
32.62
31.45
30.03
28.71
27.81
27.58
28.11
29.32
30.98
32.62
33.65
33.55
32.04
29.28
25.84
22.41
19.49
17.23
15.30
13.26
10.79
7.92
4.94
2.18
-0.13
-2.05
-3.77
-5.49
-7.31
-9.22
-11.19
-13.23
-15.45
-18.01
-21.06
-24.69
-28.87
-33.44
-38.18
-42.92
-47.51
-51.81
-55.60
-58.40
-59.57
-58.50
-54.88
-48.86
-41.06
-32.33
-23.47
-15.01
-7.22
-0.18
6.10
11.57
16.32
20.42
24.08
27.44
30.52
33.14
35.05
36.04
36.09
35.38
34.21
32.84
31.50
30.30
29.34
28.70
28.47
28.60
28.90
29.07
28.77
27.82
26.25
24.33
22.41
20.67
19.10
17.50
15.63
13.43
10.98
8.51
6.23
4.17
2.17
0.03
-2.44
-5.27
-8.41
-11.78
-15.32
-18.99
-22.74
-26.49
-30.19
-33.84
-37.50
-41.30
-45.27
-49.30
-53.09
-56.17
-57.99
-58.01
-55.84
-51.33
-44.65
-36.37
-27.31
-18.36
-10.18
-3.03
3.19
8.78
13.98
18.86
23.28
27.05
30.07
32.37
34.02
35.10
35.58
35.35
34.33
32.60
30.45
28.33
26.63
25.68
25.51
25.90
26.45
26.71
26.37
25.35
23.81
22.03
20.31
18.79
17.40
15.95
14.23
12.14
9.72
7.17
4.69
2.37
0.15
-2.22
-4.99
-8.31
-12.09
-16.03
-19.71
-22.79
-25.20
-27.15
-29.02
-31.17
-33.88
-37.26
-41.21
-45.49
-49.66
-53.07
-54.91
-54.47
-51.28
-45.44
-37.57
-28.65
-19.71
-11.51
-4.46
1.49
6.63
11.31
15.86
20.36
24.74
28.72
31.95
34.16
35.23
35.26
34.53
33.39
32.15
30.98
29.93
28.97
28.07
27.23
26.49
25.88
25.32
24.61
23.51
21.84
19.63
17.14
14.66
12.43
10.43
8.41
6.05
3.20
-0.07
-3.49
-6.71
-9.55
-12.08
-14.51
-17.09
-20.01
-23.25
-26.72
-30.35
-34.17
-38.28
-42.74
-47.43
-51.89
-55.35
-56.99
-56.17
-52.65
-46.68
-38.96
-30.35
-21.57
-13.11
-5.16
2.24
9.00
14.94
19.84
23.60
26.42
28.75
31.08
33.65
36.33
38.62
39.94
40.01
38.98
37.40
35.95
35.04
34.79
34.95
35.16
35.14
34.79
34.13
33.32
32.50
31.73
30.97
30.10
29.00
27.50
25.49
22.94
19.83
16.16
11.94
7.07
1.58
-4.45
-10.68
-16.62
-21.74
-25.74
-28.61
-30.70
-32.52
-34.48
-36.84
-39.61
-42.80
-46.42
-50.55
-55.10
-59.69
-63.53
-65.67
-65.29
-62.06
-56.19
-48.47
-39.85
-31.21
-23.11
-15.80
-9.21
-3.19
2.44
7.77
12.80
17.46
21.67
25.33
28.40
30.92
32.99
34.68
36.09
37.25
38.18
38.93
39.58
40.19
40.72
40.96
40.60
39.39
37.35
34.72
31.98
29.61
27.81
26.48
25.27
23.76
21.69
19.01
15.92
12.61
9.31
6.12
3.08
0.19
-2.57
-5.20
-7.74
-10.29
-12.92
-15.78
-19.01
-22.67
-26.75
-31.13
-35.67
-40.19
-44.59
-48.82
-52.80
-56.36
-59.16
-60.70
-60.41
-57.88
-52.97
-45.94
-37.37
-28.04
-18.70
-9.91
-2.00
4.95
10.93
15.91
19.78
22.48
24.12
25.01
25.62
26.34
27.33
28.45
29.32
29.60
29.22
28.37
27.45
26.81
26.56
26.56
26.50
26.09
25.17
23.81
22.24
20.67
19.20
17.75
16.07
13.94
11.37
8.60
6.07
4.17
3.05
2.48
1.94
0.84
-1.25
-4.48
-8.65
-13.28
-17.80
-21.73
-24.83
-27.21
-29.35
-31.90
-35.45
-40.25
-46.02
-52.01
-57.14
-60.37
-60.93
-58.51
-53.24
-45.66
-36.51
-26.54
-16.43
-6.78
1.96
9.45
15.52
20.24
23.89
26.91
29.66
32.39
35.04
37.37
39.07
39.89
39.82
39.06
37.91
36.71
35.69
34.98
34.59
34.49
34.58
34.70
34.61
34.13
33.15
31.70
29.96
28.12
26.38
24.73
23.02
21.03
18.52
15.42
11.83
8.02
4.25
0.71
-2.59
-5.83
-9.28
-13.21
-17.73
-22.81
-28.27
-33.88
-39.46
-44.97
-50.45
-55.96
-61.42
-66.51
-70.62
-72.97
-72.88
-69.99
-64.44
-56.83
-48.01
-38.85
-29.91
-21.55
-13.84
-6.70
-0.03
6.34
12.53
18.65
24.68
30.42
35.57
39.84
43.04
45.20
46.51
47.27
47.70
47.93
47.96
47.73
47.20
46.38
45.25
43.80
41.97
39.69
36.95
33.86
30.64
27.52
24.67
22.21
20.07
18.14
16.22
14.16
11.82
9.09
5.84
1.97
-2.55
-7.68
-13.17
-18.66
-23.84
-28.41
-32.28
-35.54
-38.46
-41.38
-44.62
-48.37
-52.58
-56.86
-60.51
-62.68
-62.67
-60.19
-55.45
-49.07
-41.82
-34.35
-27.05
-20.08
-13.55
-7.51
-2.02
2.95
7.56
12.03
16.52
20.95
25.02
28.19
29.97
30.09
28.69
26.33
23.81
21.88
20.96
20.97
21.44
21.74
21.37
20.19
18.37
16.35
14.52
13.15
12.29
11.83
11.58
11.31
10.86
10.15
9.12
7.70
5.79
3.25
0.06
-3.64
-7.55
-11.38
-14.96
-18.37
-21.90
-25.89
-30.50
-35.59
-40.63
-44.86
-47.41
-47.61
-45.15
-40.21
-33.43
-25.70
-17.93
-10.76
-4.47
0.91
5.56
9.64
13.34
16.80
20.13
23.32
26.21
28.51
29.97
30.46
30.11
29.24
28.19
27.19
26.29
25.34
24.16
22.59
20.63
18.44
16.28
14.46
13.13
12.24
11.47
10.44
8.83
6.54
3.77
0.80
-2.15
-5.07
-8.13
-11.56
-15.44
-19.75
-24.32
-29.04
-33.93
-39.05
-44.39
-49.63
-54.10
-56.88
-57.07
-54.14
-48.14
-39.70
-29.90
-19.83
-10.40
-2.12
4.88
10.74
15.82
20.38
24.60
28.46
31.73
34.08
35.18
34.91
33.42
31.10
28.51
26.18
24.48
23.50
23.17
23.28
23.55
23.69
23.36
22.26
20.29
17.51
14.25
10.92
7.83
5.06
2.49
-0.17
-3.08
-6.28
-9.61
-12.97
-16.35
-19.89
-23.83
-28.36
-33.47
-38.87
-44.00
-48.08
-50.28
-50.02
-47.10
-41.79
-34.69
-26.59
-18.15
-9.79
-1.79
5.63
12.25
17.82
22.25
25.65
28.33
30.63
32.81
34.78
36.25
36.90
36.52
35.24
33.50
31.87
30.84
30.53
30.64
30.62
29.89
28.15
25.58
22.66
19.93
17.68
15.80
13.93
11.63
8.63
4.92
0.77
-3.53
-7.70
-11.60
-15.24
-18.67
-22.03
-25.49
-29.25
-33.51
-38.37
-43.71
-49.00
-53.43
-56.02
-55.94
-52.90
-47.27
-39.91
-31.90
-24.09
-16.93
-10.41
-4.27
1.67
7.46
12.98
18.07
22.69
26.92
30.88
34.64
38.08
40.89
42.64
42.97
41.76
39.27
36.09
32.94
30.48
29.03
28.55
28.65
28.81
28.58
27.68
26.12
24.14
22.11
20.37
19.17
18.54
18.33
18.28
18.09
17.56
16.55
14.97
12.74
9.83
6.27
2.22
-2.08
-6.42
-10.66
-14.80
-18.92
-23.04
-27.07
-30.89
-34.41
-37.67
-40.86
-44.29
-48.21
-52.69
-57.48
-61.99
-65.33
-66.55
-64.93
-60.27
-53.02
-44.15
-34.76
-25.78
-17.65
-10.42
-3.89
2.11
7.63
12.63
17.09
21.01
24.48
27.55
30.20
32.37
34.01
35.11
35.73
35.98
35.96
35.75
35.44
35.12
34.81
34.48
33.99
33.16
31.90
30.27
28.44
26.65
25.03
23.54
21.98
20.07
17.61
14.55
11.09
7.52
4.14
1.20
-1.23
-3.24
-4.96
-6.61
-8.34
-10.35
-12.72
-15.51
-18.68
-22.08
-25.54
-28.96
-32.41
-36.16
-40.45
-45.33
-50.45
-55.04
-58.12
-58.81
-56.67
-51.78
-44.76
-36.55
-28.08
-20.06
-12.86
-6.52
-0.86
4.29
9.07
13.44
17.32
20.68
23.58
26.20
28.67
31.09
33.35
35.26
36.63
37.33
37.40
37.03
36.50
36.01
35.62
35.21
34.56
33.47
31.91
29.98
27.94
25.96
24.06
22.12
19.92
17.30
14.28
10.99
7.65
4.41
1.39
-1.45
-4.20
-7.01
-10.05
-13.42
-17.07
-20.89
-24.70
-28.40
-32.00
-35.58
-39.23
-42.98
-46.72
-50.17
-52.90
-54.40
-54.05
-51.40
-46.23
-38.82
-29.91
-20.50
-11.62
-3.94
2.33
7.41
11.75
15.75
19.64
23.41
26.88
29.77
31.87
33.07
33.43
33.15
32.48
31.64
30.79
30.05
29.44
28.96
28.59
28.22
27.74
27.01
25.95
24.55
22.89
21.10
19.30
17.51
15.61
13.39
10.62
7.15
2.98
-1.69
-6.47
-10.95
-14.82
-18.05
-20.84
-23.53
-26.41
-29.55
-32.75
-35.72
-38.26
-40.42
-42.51
-44.93
-48.06
-52.02
-56.69
-61.69
-66.42
-70.13
-71.99
-71.19
-67.19
-59.88
-49.64
-37.33
-24.03
-10.89
1.14
11.48
19.95
26.74
32.30
37.09
41.43
45.38
48.75
51.30
52.78
53.16
52.52
51.06
49.04
46.73
44.30
41.84
39.33
36.63
33.57
30.07
26.18
22.09
18.03
14.23
10.85
8.05
5.93
4.58
3.98
3.89
3.92
3.54
2.33
0.09
-2.98
-6.49
-9.95
-13.04
-15.76
-18.31
-21.04
-24.17
-27.65
-31.23
-34.58
-37.54
-40.26
-43.10
-46.46
-50.48
-54.87
-59.03
-62.14
-63.46
-62.61
-59.50
-54.37
-47.62
-39.72
-31.15
-22.31
-13.57
-5.16
2.73
9.99
16.47
22.04
26.55
29.94
32.16
33.24
33.26
32.37
30.87
29.10
27.49
26.39
25.95
26.12
26.71
27.43
28.05
28.50
28.78
28.94
28.96
28.71
27.94
26.49
24.27
21.45
18.32
15.19
12.24
9.38
6.38
3.01
-0.78
-4.73
-8.51
-11.81
-14.64
-17.30
-20.31
-24.13
-29.00
-34.90
-41.49
-48.26
-54.47
-59.29
-61.87
-61.53
-58.01
-51.54
-42.89
-33.14
-23.36
-14.31
-6.26
0.94
7.64
14.12
20.39
26.27
31.45
35.69
38.92
41.17
42.50
42.91
42.39
40.98
38.82
36.16
33.28
30.31
27.32
24.35
21.56
19.23
17.62
16.81
16.65
16.76
16.73
16.28
15.37
14.05
12.39
10.31
7.65
4.28
0.22
-4.32
-9.02
-13.61
-17.94
-22.02
-25.91
-29.73
-33.59
-37.67
-42.14
-47.13
-52.52
-57.82
-62.20
-64.71
-64.55
-61.43
-55.63
-47.92
-39.23
-30.45
-22.13
-14.52
-7.60
-1.27
4.67
10.32
15.80
21.13
26.22
30.85
34.74
37.62
39.36
40.04
39.89
39.23
38.33
37.40
36.54
35.70
34.77
33.53
31.69
29.05
25.56
21.40
16.98
12.72
8.98
5.90
3.42
1.37
-0.49
-2.38
-4.53
-7.10
-10.17
-13.70
-17.48
-21.25
-24.75
-27.87
-30.68
-33.43
-36.40
-39.81
-43.65
-47.60
-51.01
-53.08
-53.01
-50.36
-45.09
-37.61
-28.66
-19.06
-9.58
-0.80
6.91
13.42
18.79
23.26
27.03
30.20
32.70
34.31
34.86
34.34
32.91
30.90
28.61
26.30
24.14
22.24
20.69
19.47
18.49
17.57
16.49
15.11
13.39
11.37
9.18
6.92
4.65
2.29
-0.29
-3.32
-6.97
-11.25
-15.95
-20.70
-25.06
-28.76
-31.77
-34.27
-36.56
-38.80
-41.00
-42.95
-44.21
-44.22
-42.31
-37.90
-30.72
-20.98
-9.38
2.98
14.99
25.82
35.03
42.57
48.53
53.02
56.05
57.70
58.06
57.36
55.85
53.74
51.16
48.16
44.83
41.28
37.73
34.37
31.39
28.90
26.95
25.54
24.58
23.95
23.44
22.82
21.79
20.11
17.68
14.57
11.13
7.79
4.93
2.70
0.93
-0.81
-3.02
-6.03
-9.88
-14.37
-19.12
-23.79
-28.14
-32.07
-35.58
-38.78
-41.83
-44.96
-48.35
-52.04
-55.78
-59.05
-61.08
-61.09
-58.54
-53.36
-45.92
-37.03
-27.66
-18.72
-10.76
-4.01
1.66
6.53
10.94
15.18
19.41
23.66
27.81
31.61
34.75
36.95
38.05
38.09
37.24
35.79
34.10
32.50
31.27
30.60
30.54
30.90
31.39
31.59
31.21
30.18
28.65
26.89
25.11
23.29
21.20
18.51
15.06
10.95
6.57
2.42
-1.11
-3.92
-6.26
-8.60
-11.41
-14.96
-19.25
-23.95
-28.64
-32.94
-36.63
-39.78
-42.76
-46.03
-49.96
-54.60
-59.45
-63.64
-66.09
-65.90
-62.65
-56.53
-48.26
-38.84
-29.26
-20.28
-12.39
-5.84
-0.66
3.32
6.36
8.80
10.94
12.86
14.48
15.52
15.82
15.51
15.11
15.38
17.00
20.23
24.72
29.67
34.16
37.53
39.56
40.40
40.30
39.34
37.32
34.01
29.30
23.53
17.28
11.26
6.03
1.86
-1.21
-3.22
-4.16
-4.01
-2.83
-0.89
1.37
3.42
4.78
5.21
4.59
3.03
0.66
-2.30
-5.68
-9.34
-13.24
-17.46
-22.11
-27.15
-32.31
-37.01
-40.48
-41.96
-40.93
-37.31
-31.45
-24.04
-15.92
-7.90
-0.52
5.99
11.62
16.47
20.62
24.10
26.92
29.15
30.96
32.51
33.75
34.48
34.37
33.21
31.10
28.43
25.73
23.43
21.65
20.29
19.14
18.02
16.92
15.92
15.10
14.42
13.77
12.97
11.89
10.47
8.79
6.97
5.18
3.52
1.99
0.49
-1.11
-2.92
-4.97
-7.21
-9.65
-12.32
-15.35
-18.89
-22.95
-27.35
-31.75
-35.79
-39.30
-42.35
-45.29
-48.57
-52.39
-56.57
-60.39
-62.79
-62.67
-59.34
-52.82
-43.83
-33.58
-23.33
-14.01
-6.04
0.61
6.23
11.13
15.50
19.49
23.18
26.61
29.83
32.75
35.17
36.90
37.74
37.66
36.74
35.22
33.41
31.62
30.08
28.92
28.08
27.42
26.76
25.98
25.07
24.09
23.14
22.25
21.37
20.38
19.18
17.69
15.87
13.72
11.23
8.36
5.15
1.66
-1.99
-5.57
-8.90
-11.91
-14.60
-17.19
-19.91
-22.91
-26.13
-29.29
-32.04
-34.21
-35.98
-37.82
-40.36
-44.02
-48.75
-53.93
-58.58
-61.63
-62.25
-60.11
-55.37
-48.53
-40.27
-31.30
-22.28
-13.76
-6.12
0.37
5.74
10.21
14.11
17.81
21.53
25.25
28.78
31.81
34.10
35.51
36.11
36.03
35.47
34.63
33.68
32.77
32.03
31.51
31.20
31.03
30.88
30.67
30.35
29.91
29.36
28.62
27.69
26.60
25.43
24.30
23.16
21.75
19.69
16.74
13.00
8.96
5.29
2.53
0.79
-0.32
-1.39
-2.95
-5.14
-7.84
-10.74
-13.62
-16.44
-19.27
-22.21
-25.30
-28.64
-32.40
-36.87
-42.33
-48.78
-55.82
-62.49
-67.62
-70.09
-69.21
-65.00
-58.09
-49.51
-40.36
-31.52
-23.49
-16.39
-10.03
-4.17
1.40
6.75
11.76
16.26
20.08
23.21
25.77
27.94
29.83
31.44
32.68
33.41
33.62
33.45
33.10
32.74
32.40
31.96
31.23
30.09
28.60
26.99
25.57
24.54
23.87
23.22
22.13
20.09
16.89
12.66
7.85
3.15
-0.85
-3.86
-6.04
-7.93
-10.15
-13.18
-17.14
-21.68
-26.26
-30.35
-33.73
-36.58
-39.37
-42.66
-46.74
-51.49
-56.35
-60.43
-62.79
-62.74
-59.95
-54.51
-46.89
-37.69
-27.60
-17.29
-7.38
1.59
9.23
15.45
20.44
24.62
28.44
32.14
35.60
38.40
40.10
40.46
39.69
38.27
36.82
35.76
35.23
35.07
35.14
35.32
35.60
35.93
36.18
36.07
35.41
34.14
32.42
30.59
28.92
27.52
26.30
24.96
23.13
20.50
16.99
12.71
8.02
3.29
-1.16
-5.23
-9.05
-12.86
-16.87
-21.17
-25.60
-29.92
-33.88
-37.43
-40.65
-43.85
-47.36
-51.38
-55.90
-60.51
-64.50
-66.99
-67.18
-64.61
-59.35
-51.91
-43.12
-33.81
-24.66
-16.12
-8.38
-1.45
4.78
10.50
15.93
21.22
26.33
31.07
35.10
38.11
39.96
40.71
40.52
39.69
38.47
37.10
35.85
34.98
34.59
34.66
34.90
34.94
34.50
33.49
32.08
30.63
29.47
28.71
28.15
27.42
26.10
23.98
21.14
17.82
14.30
10.78
7.28
3.76
0.19
-3.37
-6.85
-10.17
-13.34
-16.40
-19.42
-22.34
-25.13
-27.74
-30.35
-33.25
-36.79
-41.14
-46.24
-51.71
-56.96
-61.27
-63.93
-64.34
-62.09
-57.07
-49.64
-40.52
-30.70
-21.16
-12.63
-5.36
0.79
6.23
11.41
16.57
21.73
26.69
31.12
34.73
37.31
38.81
39.33
39.11
38.40
37.46
36.51
35.68
34.97
34.28
33.48
32.42
31.07
29.57
28.12
26.92
26.07
25.47
24.93
24.19
23.02
21.26
18.85
15.77
12.15
8.18
4.15
0.37
-2.96
-5.85
-8.41
-10.90
-13.54
-16.40
-19.52
-22.89
-26.57
-30.74
-35.52
-40.90
-46.59
-52.01
-56.32
-58.67
-58.36
-55.07
-49.02
-40.90
-31.69
-22.38
-13.66
-5.80
1.26
7.68
13.57
18.90
23.50
27.31
30.37
32.82
34.81
36.40
37.48
37.93
37.67
36.74
35.35
33.81
32.37
31.21
30.26
29.34
28.25
26.89
25.32
23.74
22.35
21.15
19.99
18.63
16.87
14.72
12.30
9.74
7.10
4.22
0.85
-3.16
-7.79
-12.80
-17.75
-22.24
-26.03
-29.11
-31.68
-34.12
-36.83
-40.13
-44.24
-49.08
-54.33
-59.35
-63.32
-65.36
