1462948424.00
64.000000
-0.00
-0.00
-0.00
-0.00
-0.00
-0.00
-0.00
-0.00
-0.00
-0.00
0.01
0.01
0.02
0.00
-0.03
-0.06
-0.06
-0.00
0.15
0.40
0.71
1.03
1.30
1.50
1.65
1.82
2.09
2.49
3.06
3.72
4.37
4.92
5.33
5.64
5.96
6.41
7.07
8.01
9.07
10.05
10.75
11.13
11.31
11.57
12.28
13.65
15.84
18.46
21.02
23.03
24.33
25.17
26.21
28.22
31.69
36.85
42.93
48.89
53.75
57.13
59.46
61.92
65.85
72.10
80.97
91.21
101.13
109.18
114.70
118.35
121.80
127.30
134.04
144.02
157.04
172.20
187.52
199.58
203.81
195.75
173.08
137.14
93.53
49.21
9.97
-22.41
-50.67
-80.24
-116.07
-159.99
-210.16
-262.15
-312.01
-357.37
-397.67
-432.89
-462.19
-483.39
-493.62
-490.76
-474.30
-446.03
-408.97
-366.45
-321.07
-274.24
-226.46
-177.88
-129.03
-80.99
-35.55
5.41
40.51
69.22
92.01
109.97
124.36
136.11
145.64
152.85
157.41
159.15
158.21
155.12
150.64
145.47
140.12
134.76
129.33
123.67
117.65
111.28
104.70
98.14
91.80
85.77
80.10
74.75
69.67
64.82
60.20
55.84
51.78
48.02
44.59
41.46
38.63
36.11
33.88
31.95
30.32
28.99
27.94
27.18
26.70
26.49
26.55
26.87
27.44
28.22
29.17
30.25
31.36
32.40
33.23
33.71
33.68
32.99
31.53
29.23
26.08
22.13
17.46
12.24
6.70
1.09
-4.35
-9.36
-13.76
-17.38
-20.14
-22.00
-22.97
-23.13
-22.61
-21.52
-20.01
-18.22
-16.24
-14.16
-12.05
-9.90
-7.76
-5.64
-3.52
-1.37
0.83
3.11
5.50
8.03
10.74
13.55
16.43
19.35
22.30
25.29
28.35
31.51
34.85
38.48
42.34
46.41
50.69
55.16
59.83
64.71
69.79
75.13
80.80
86.62
92.49
98.39
104.31
110.27
116.29
122.44
128.74
135.26
141.67
147.69
153.04
157.39
160.39
161.58
160.37
155.93
149.78
142.47
134.41
125.89
117.22
108.59
100.21
92.28
84.98
78.50
72.64
67.31
62.42
57.91
53.75
49.88
46.28
42.96
39.97
37.10
34.25
31.37
28.42
25.41
22.31
19.16
15.99
12.91
9.89
7.01
4.32
1.94
-0.11
-1.83
-3.29
-4.59
-5.80
-7.02
-8.31
-9.65
-11.01
-12.38
-13.88
-15.64
-17.76
-20.31
-23.19
-26.24
-29.20
-31.91
-34.37
-36.84
-39.77
-43.62
-48.71
-55.06
-62.39
-70.19
-78.00
-85.61
-93.16
-101.05
-109.80
-119.73
-130.81
-142.69
-154.84
-166.79
-178.42
-189.92
-201.81
-214.83
-229.90
-247.93
-269.52
-294.31
-320.51
-344.83
-363.23
-372.11
-369.70
-356.70
-335.86
-310.90
-284.95
-259.91
-236.28
-213.80
-192.08
-171.02
-150.69
-131.12
-112.17
-93.69
-75.68
-58.48
-42.62
-28.78
-17.45
-8.78
-2.44
2.32
6.51
11.02
16.29
22.22
28.16
33.40
37.54
40.60
42.88
44.63
45.78
45.89
44.46
41.18
36.19
30.12
23.77
17.94
13.25
10.12
8.71
8.93
10.53
13.05
15.95
18.72
20.98
22.52
23.35
23.59
23.37
22.87
22.14
21.18
19.95
18.33
16.19
13.58
10.92
9.08
9.19
12.11
17.88
25.46
32.96
38.40
40.48
39.13
35.21
29.94
24.23
18.41
12.42
6.29
0.50
-4.14
-6.84
-7.33
-6.05
-3.94
-1.90
-0.38
0.81
2.35
4.89
8.59
12.83
16.45
18.10
16.80
12.32
5.31
-2.74
-9.69
-13.30
-11.93
-5.10
6.02
18.99
30.94
39.71
44.57
46.27
46.24
45.71
44.95
43.44
40.45
35.73
29.73
23.38
17.52
12.55
8.47
5.10
2.44
0.73
0.44
1.92
5.18
9.83
15.15
20.44
25.08
28.74
31.23
32.53
32.69
31.91
30.44
28.51
26.29
23.78
20.96
17.92
14.91
12.48
11.22
11.48
13.14
15.62
18.05
19.64
19.96
19.00
17.09
14.75
12.51
10.85
10.03
10.05
10.68
11.49
12.06
12.27
12.23
12.31
12.79
13.62
14.35
14.40
13.32
11.11
8.19
5.25
2.91
1.55
1.27
2.11
4.18
7.68
12.78
19.40
26.90
34.19
39.97
43.07
42.81
39.27
33.11
25.50
17.68
10.71
5.30
1.81
0.09
-0.39
-0.55
-1.61
-4.66
-10.41
-18.91
-29.45
-40.56
-50.40
-57.13
-59.51
-57.18
-50.87
-42.12
-32.82
-24.53
-18.24
-14.19
-11.96
-10.60
-8.65
-3.98
6.07
23.79
49.87
82.04
114.61
139.55
149.39
140.43
115.06
81.19
49.26
27.80
19.93
22.63
29.01
32.15
28.44
18.77
7.06
-2.32
-6.96
-7.26
-5.53
-4.19
-4.30
-5.01
-4.43
-1.12
4.56
10.09
11.60
5.72
-8.52
-28.99
-51.26
-70.44
-83.25
-89.14
-89.85
-88.04
-85.70
-83.27
-79.85
-74.12
-65.35
-53.91
-41.25
-29.29
-19.67
-13.21
-9.65
-7.92
-6.61
-4.71
-1.94
1.28
4.14
6.02
6.83
7.00
7.16
7.78
8.88
10.15
11.08
11.24
10.51
9.07
7.29
5.55
4.07
2.92
2.03
1.28
0.63
0.13
-0.11
-0.17
-0.31
-1.00
-2.70
-5.59
-9.45
-13.79
-17.98
-21.54
-24.36
-26.60
-28.54
-30.42
-32.21
-33.65
-34.31
-33.77
-31.75
-28.19
-23.14
-16.80
-9.35
-1.11
7.43
15.62
22.74
28.18
31.66
33.26
33.32
32.20
30.24
27.57
24.27
20.46
16.25
11.87
7.56
3.60
0.26
-2.18
-3.47
-3.53
-2.67
-1.46
-0.72
-1.05
-2.78
-5.71
-9.26
-12.72
-15.51
-17.46
-18.75
-19.83
-21.05
-22.57
-24.11
-25.08
-24.78
-22.78
-19.21
-14.81
-10.74
-7.99
-6.96
-7.13
-7.32
-6.24
-3.15
1.64
6.80
10.53
11.52
9.90
7.39
6.97
11.75
23.92
43.78
69.39
96.61
119.48
131.50
127.18
104.25
65.20
17.81
-27.00
-58.83
-71.91
-67.52
-53.00
-37.98
-29.51
-28.88
-31.55
-30.55
-20.85
-2.41
19.52
37.11
43.46
35.56
14.90
-13.63
-43.61
-68.88
-84.81
-89.00
-81.60
-65.42
-45.18
-25.92
-11.22
-1.74
4.93
12.69
24.38
39.73
54.60
62.57
57.79
37.97
6.18
-29.70
-59.63
-75.19
-73.07
-56.39
-33.37
-13.57
-3.58
-4.03
-9.74
-12.62
-6.08
11.47
35.85
59.46
74.92
78.33
69.97
52.79
30.14
4.45
-22.23
-46.95
-65.44
-73.23
-68.04
-51.68
-29.83
-9.69
3.61
9.19
10.54
13.00
20.68
34.49
51.85
68.11
78.23
78.26
66.07
42.27
10.75
-21.49
-45.93
-55.79
-49.08
-30.19
-8.16
7.60
12.07
7.06
-0.19
-1.44
7.89
26.41
47.99
65.11
72.40
68.13
53.61
31.36
4.10
-25.05
-52.05
-72.08
-81.15
-78.20
-66.39
-51.90
-40.98
-36.46
-36.29
-34.97
-27.01
-10.52
11.34
31.83
44.08
44.25
32.89
14.13
-6.45
-23.62
-33.66
-34.83
-27.53
-14.34
0.41
12.04
17.47
16.80
13.42
12.23
16.66
26.43
37.29
43.01
38.62
22.95
-0.73
-26.06
-46.28
-56.75
-56.41
-47.79
-35.63
-24.65
-17.44
-13.64
-10.42
-4.38
6.02
19.26
31.12
36.75
33.21
21.00
3.76
-13.36
-25.94
-31.82
-31.13
-25.68
-18.03
-10.66
-5.47
-3.23
-3.04
-2.43
1.85
12.08
28.09
46.82
63.32
72.84
72.69
62.82
45.26
22.85
-1.29
-23.93
-41.50
-50.54
-48.92
-37.35
-19.88
-2.84
7.62
7.99
-1.46
-17.32
-34.95
-50.35
-61.26
-67.10
-68.41
-66.31
-62.12
-57.11
-52.27
-47.99
-44.12
-40.14
-35.50
-29.65
-22.12
-12.28
0.30
15.47
32.02
47.75
60.41
68.78
73.26
75.30
76.04
74.98
70.02
59.05
42.03
22.18
4.96
-4.52
-4.49
2.44
10.67
14.54
11.37
2.41
-8.33
-16.68
-20.60
-20.89
-20.11
-20.68
-23.13
-25.93
-26.50
-23.07
-15.87
-6.95
1.16
7.05
11.06
14.61
18.45
21.48
21.25
15.78
5.58
-5.82
-13.48
-13.97
-7.68
1.39
8.15
9.77
7.59
6.00
9.20
17.99
28.84
36.09
35.47
26.99
15.02
5.50
2.36
5.16
9.57
10.15
3.67
-8.99
-23.49
-34.63
-39.24
-37.60
-33.00
-29.73
-30.78
-36.47
-44.46
-51.12
-53.19
-49.15
-39.44
-26.05
-11.45
2.32
14.05
23.50
30.91
36.53
40.26
41.51
39.57
34.26
26.29
17.42
9.65
4.36
1.32
-1.01
-4.29
-8.83
-12.79
-13.03
-7.31
3.87
17.08
27.71
32.79
32.85
31.36
32.28
37.18
43.83
47.61
44.41
33.38
17.64
2.39
-8.33
-13.84
-17.04
-22.09
-31.57
-44.66
-57.37
-64.77
-63.66
-54.24
-39.81
-24.89
-12.85
-4.33
2.50
10.50
21.72
36.16
51.77
65.52
74.57
77.29
73.74
65.49
55.09
45.23
37.68
32.71
28.98
24.18
16.29
4.98
-7.85
-18.62
-23.65
-20.99
-11.37
2.04
15.23
25.02
30.23
31.81
31.71
31.46
31.04
28.73
22.12
9.82
-7.12
-25.18
-39.80
-47.69
-48.52
-45.02
-41.10
-39.31
-39.00
-36.91
-29.46
-15.41
2.95
21.09
34.83
42.59
45.70
46.78
47.43
46.92
42.98
34.01
21.03
7.89
-0.46
-0.72
6.82
18.30
28.21
32.01
28.09
17.99
5.15
-6.97
-16.39
-22.98
-27.91
-32.56
-37.66
-43.15
-48.66
-53.88
-58.87
-63.98
-69.40
-74.98
-79.99
-83.38
-84.27
-82.47
-78.57
-73.90
-69.93
-67.60
-66.92
-66.87
-65.86
-62.55
-56.38
-47.84
-38.21
-28.99
-21.29
-15.59
-11.69
-8.91
-6.27
-2.50
3.67
13.08
25.62
39.94
53.68
64.40
70.45
71.69
69.34
65.13
60.29
55.16
49.31
42.27
34.09
25.59
17.78
11.52
7.16
4.71
4.32
6.27
10.85
17.97
26.88
36.12
44.21
49.98
53.02
53.71
52.96
51.85
51.29
51.91
53.83
56.70
59.75
62.17
63.47
63.53
62.59
60.86
58.21
54.22
48.49
41.11
32.72
24.38
16.88
10.30
3.99
-3.04
-11.39
-20.89
-30.67
-39.68
-47.13
-52.80
-56.92
-59.90
-61.97
-63.08
-62.91
-61.07
-57.34
-51.65
-44.27
-35.60
-26.26
-16.89
-8.09
-0.31
6.20
11.23
14.80
17.09
18.51
19.57
20.72
22.16
23.83
25.62
27.42
29.30
31.31
33.35
34.94
35.41
34.19
31.18
26.80
21.80
16.85
12.17
7.66
2.99
-1.95
-6.95
-11.63
-15.65
-19.00
-21.88
-24.50
-26.76
-28.15
-27.92
-25.57
-21.14
-15.23
-8.86
-2.91
2.13
6.32
9.93
13.13
15.74
17.34
17.59
16.43
14.28
11.76
9.39
7.42
5.85
4.56
3.53
2.84
2.59
2.79
3.07
2.95
1.98
-0.06
-2.89
-5.95
-8.53
-10.18
-10.69
-10.34
-9.71
-9.40
-9.95
-11.60
-14.22
-17.23
-19.69
-20.50
-18.85
-14.48
-8.07
-0.96
5.14
8.90
9.72
7.92
4.56
0.93
-1.90
-3.35
-3.40
-2.31
-0.54
1.50
3.47
5.03
5.93
5.90
4.83
2.78
0.08
-2.86
-5.65
-8.11
-10.25
-12.15
-13.77
-14.89
-15.18
-14.31
-12.33
-9.52
-6.41
-3.46
-0.99
0.95
2.46
3.78
5.20
7.23
10.55
15.79
23.31
32.80
43.16
52.68
59.57
62.65
61.58
56.98
50.11
42.29
34.61
27.80
22.22
18.06
15.35
13.92
13.45
13.59
13.89
14.10
14.22
14.43
14.87
15.62
16.57
17.58
18.57
19.57
20.64
21.72
22.62
23.00
22.65
21.52
19.74
17.46
14.57
10.77
5.84
-0.10
-6.49
-12.52
-17.69
-22.22
-26.89
-32.68
-39.93
-48.02
-55.65
-61.39
-64.36
-64.63
-62.89
-59.93
-56.26
-51.86
-46.53
-40.22
-33.19
-26.00
-19.18
-13.01
-7.43
-2.11
3.26
8.78
14.17
18.91
22.39
24.21
24.30
22.91
20.50
17.51
14.48
11.86
10.04
9.17
9.08
9.35
9.50
9.22
8.55
7.72
6.88
6.11
5.12
3.74
1.90
-0.26
-2.49
-4.67
-6.98
-9.73
-13.12
-17.08
-21.19
-24.87
-27.44
-28.23
-26.88
-23.41
-18.34
-12.59
-7.25
-3.16
-0.60
0.75
1.66
2.80
4.45
6.44
8.38
9.85
10.83
11.62
12.68
14.31
16.46
18.67
20.44
21.41
21.51
21.09
20.54
20.06
19.53
18.58
16.91
14.42
11.42
8.33
5.58
3.35
1.53
-0.16
-1.90
-3.76
-5.72
-7.75
-9.88
-12.17
-14.72
-17.56
-20.62
-23.69
-26.49
-28.63
-29.63
-29.10
-26.83
-22.89
-17.66
-11.68
-5.49
0.46
5.87
10.46
14.15
16.86
18.65
19.64
20.03
19.99
19.70
19.30
18.95
18.64
18.32
17.86
17.16
16.24
15.31
14.70
14.72
15.36
16.32
17.05
17.05
16.14
14.49
12.62
10.93
9.61
8.43
6.92
4.63
1.40
-2.52
-6.78
-10.95
-14.85
-18.42
-21.59
-24.09
-25.46
-25.25
-23.27
-19.83
-15.66
-11.69
-8.57
-6.53
-5.37
-4.59
-3.80
-2.86
-1.98
-1.45
-1.44
-1.94
-2.65
-3.15
-3.10
-2.40
-1.16
0.27
1.55
2.43
2.88
2.95
2.71
2.30
1.78
1.37
1.23
1.65
2.75
4.50
6.66
8.86
10.69
11.74
11.80
10.76
8.76
5.99
2.83
-0.41
-3.50
-6.43
-9.31
-12.17
-14.98
-17.48
-19.22
-19.69
-18.52
-15.58
-11.08
-5.56
0.32
5.90
10.60
14.14
16.43
17.58
17.75
17.14
15.84
14.07
12.05
10.14
8.61
7.63
7.15
7.03
7.05
7.04
6.96
6.80
6.55
6.21
5.74
5.14
4.44
3.57
2.41
0.84
-1.24
-3.81
-6.73
-9.80
-12.75
-15.25
-16.97
-17.51
-16.60
-14.39
-11.44
-8.59
-6.64
-6.04
-6.67
-8.07
-9.74
-11.35
-12.87
-14.27
-15.38
-15.82
-15.16
-13.23
-10.35
-7.26
-4.71
-3.14
-2.46
-2.08
-1.23
0.62
3.60
7.35
11.19
14.42
16.42
16.92
15.87
13.48
10.09
6.19
2.35
-0.79
-2.66
-2.98
-1.79
0.47
3.04
5.12
6.09
5.69
4.03
1.56
-1.22
-3.88
-6.22
-8.26
-10.02
-11.53
-12.66
-13.36
-13.65
-13.84
-14.30
-15.38
-17.26
-19.74
-22.30
-24.23
-24.86
-23.73
-20.75
-16.21
-10.85
-5.52
-1.04
2.10
3.83
4.52
4.65
4.71
4.95
5.43
5.91
6.18
6.13
5.86
5.61
5.64
5.99
6.43
6.61
6.23
5.39
4.43
3.78
3.62
3.74
3.58
2.62
0.70
-1.85
-4.47
-6.72
-8.41
-9.76
-11.06
-12.55
-14.30
-16.29
-18.45
-20.77
-23.17
-25.34
-26.67
-26.53
-24.47
-20.47
-15.14
-9.43
-4.27
-0.32
2.31
3.97
5.21
6.55
8.21
10.10
11.95
13.53
14.77
15.82
16.94
18.21
19.51
20.50
20.79
20.24
19.03
17.47
16.07
15.06
14.46
13.87
12.84
10.90
7.89
4.08
-0.01
-3.64
-6.27
-7.73
-8.39
-8.84
-9.77
-11.58
-14.16
-17.07
-19.75
-21.77
-23.01
-23.56
-23.45
-22.58
-20.68
-17.43
-12.85
-7.34
-1.68
3.23
6.63
8.24
8.20
6.98
5.28
3.62
2.47
2.08
2.56
3.85
5.65
7.42
8.55
8.56
7.26
4.93
2.21
-0.13
-1.46
-1.56
-0.66
0.68
1.92
2.57
2.43
1.47
-0.19
-2.40
-4.94
-7.66
-10.45
-13.16
-15.79
-18.23
-20.42
-22.22
-23.38
-23.65
-22.73
-20.46
-16.85
-12.17
-6.88
-1.66
2.94
6.63
9.48
11.73
13.70
15.48
16.99
18.10
18.72
18.99
19.15
19.49
20.15
21.01
21.73
21.82
20.91
18.84
15.73
11.97
7.98
4.20
0.89
-1.81
-3.84
-5.19
-6.01
-6.51
-7.00
-7.79
-8.93
-10.31
-11.74
-13.11
-14.49
-16.12
-18.19
-20.63
-23.16
-25.28
-26.51
-26.48
-25.05
-22.18
-18.00
-12.73
-6.89
-1.12
3.86
7.57
9.93
11.27
12.07
12.77
13.53
14.33
14.96
15.28
15.20
14.79
14.16
13.47
12.81
12.19
11.61
11.02
10.48
10.08
9.92
10.05
10.34
10.52
10.23
9.29
7.74
5.85
3.93
2.22
0.72
-0.71
-2.35
-4.52
-7.40
-10.93
-14.73
-18.17
-20.72
-22.11
-22.61
-22.82
-23.30
-24.15
-24.95
-24.87
-23.08
-19.17
-13.34
-6.24
1.24
8.29
14.33
18.96
22.06
23.66
23.95
23.18
21.69
19.85
17.91
16.13
14.55
13.15
11.71
10.04
7.97
5.54
2.99
0.65
-1.29
-2.81
-4.01
-5.10
-6.23
-7.44
-8.71
-9.93
-11.05
-11.92
-12.50
-12.83
-13.10
-13.54
-14.36
-15.60
-17.03
-18.30
-19.00
-18.81
-17.49
-15.01
-11.48
-7.16
-2.53
1.85
5.47
8.10
9.77
10.72
11.22
11.49
11.53
11.26
10.69
9.94
9.19
8.64
8.43
8.62
9.12
9.89
10.79
11.68
12.40
12.86
13.03
12.99
12.84
12.72
12.65
12.54
12.34
11.89
11.00
9.48
7.20
4.06
0.12
-4.38
-9.03
-13.35
-17.03
-19.93
-22.24
-24.33
-26.56
-29.01
-31.39
-33.07
-33.32
-31.62
-27.96
-22.78
-16.81
-10.79
-5.19
-0.20
4.10
7.79
10.87
13.49
15.82
18.06
20.30
22.46
24.35
25.71
26.43
26.55
26.09
25.10
23.54
21.44
18.96
16.41
14.11
12.25
10.70
9.16
7.38
5.22
2.78
0.32
-1.96
-3.93
-5.48
-6.55
-7.10
-6.99
-6.20
-4.79
-3.00
-1.20
0.14
0.52
-0.53
-3.37
-8.00
-14.05
-20.61
-26.43
-30.35
-31.56
-29.99
-26.22
-21.23
-15.90
-10.79
-5.98
-1.33
3.28
7.75
11.93
15.67
18.91
21.64
23.73
24.99
25.25
24.51
23.06
21.51
20.40
20.01
20.32
20.90
21.39
21.52
21.17
20.28
18.69
16.20
12.83
8.90
4.98
1.78
-0.24
-1.03
-1.08
-0.98
-1.38
-2.62
-4.63
-7.19
-10.07
-13.18
-16.57
-20.31
-24.39
-28.62
-32.53
-35.56
-37.22
-37.09
-35.06
-31.35
-26.30
-20.41
-14.19
-8.01
-2.17
3.12
7.71
11.44
14.12
15.76
16.51
16.69
16.83
17.40
18.59
20.32
22.23
23.82
24.66
24.61
23.73
22.25
20.34
18.05
15.36
12.20
8.65
4.90
1.29
-1.95
-4.63
-6.78
-8.57
-10.20
-11.91
-13.90
-16.39
-19.51
-23.17
-27.00
-30.38
-32.51
-32.61
-30.35
-25.95
-20.14
-13.87
-8.05
-3.08
0.98
4.36
7.36
10.12
12.60
14.69
16.22
17.06
17.13
16.39
14.85
12.62
10.02
7.42
5.16
3.32
1.77
0.22
-1.56
-3.67
-6.02
-8.51
-11.03
-13.44
-15.61
-17.31
-18.16
-17.87
-16.29
-13.56
-10.17
-6.85
-4.33
-3.24
-4.02
-6.78
-11.30
-17.00
-22.97
-28.07
-31.19
-31.47
-28.55
-22.75
-14.85
-5.96
2.93
11.10
18.26
24.29
29.29
33.33
36.44
38.69
40.09
40.72
40.64
39.93
38.70
37.10
35.29
33.49
31.75
30.04
28.16
25.90
23.03
19.42
15.15
10.49
5.89
1.84
-1.34
-3.60
-5.17
-6.44
-7.69
-9.09
-10.64
-12.25
-13.79
-15.19
-16.37
-17.26
-17.88
-18.35
-19.01
-20.24
-22.24
-24.82
-27.33
-28.88
-28.69
-26.34
-22.01
-16.40
-10.44
-5.04
-0.77
2.29
4.48
6.36
8.49
11.07
13.93
16.61
18.65
19.82
20.31
20.63
21.22
22.33
23.77
25.13
25.96
25.96
25.06
23.35
20.97
17.99
14.46
10.42
6.04
1.69
-2.17
-5.14
-6.95
-7.70
-7.72
-7.54
-7.59
-8.02
-8.70
-9.44
-10.07
-10.75
-11.87
-13.80
-16.70
-20.26
-23.79
-26.38
-27.24
-25.90
-22.39
-17.24
-11.30
-5.50
-0.50
3.29
5.85
7.40
8.21
8.51
8.42
8.07
7.59
7.09
6.71
6.52
6.48
6.48
6.37
6.04
5.55
4.96
4.33
3.66
2.78
1.48
-0.40
-2.89
-5.80
-8.83
-11.62
-14.08
-16.41
-19.01
-22.27
-26.33
-30.90
-35.30
-38.82
-40.86
-41.10
-39.59
-36.56
-32.37
-27.38
-21.98
-16.47
-11.08
-5.94
-1.06
3.53
7.80
11.68
15.06
17.84
20.01
21.55
22.47
22.91
23.03
23.17
23.57
24.41
25.65
27.07
28.34
29.16
29.42
28.99
27.81
25.80
22.91
19.23
14.95
10.43
5.98
1.72
-2.44
-6.67
-11.20
-16.05
-21.00
-25.68
-29.70
-32.76
-34.60
-35.08
-33.95
-31.10
-26.56
-20.69
-14.14
-7.72
-2.04
2.68
6.66
10.33
14.00
17.61
20.76
22.96
23.94
23.81
23.11
22.36
22.02
22.08
22.31
22.38
22.06
21.33
20.37
19.38
18.43
17.37
16.00
14.00
11.30
7.98
4.40
0.96
-2.05
-4.61
-6.91
-9.23
-11.73
-14.40
-17.16
-19.89
-22.62
-25.46
-28.49
-31.59
-34.34
-36.15
-36.33
-34.45
-30.35
-24.28
-16.86
-8.94
-1.41
5.03
10.01
13.61
16.23
18.29
20.17
21.94
23.45
24.49
24.80
24.29
22.99
21.03
18.58
15.93
13.44
11.49
10.36
10.02
10.24
10.58
10.62
10.17
9.31
8.36
7.66
7.37
7.33
7.19
6.67
5.64
4.25
2.73
1.26
-0.29
-2.19
-4.80
-8.29
-12.55
-17.23
-21.87
-26.02
-29.28
-31.28
-31.72
-30.45
-27.49
-23.19
-18.06
-12.61
-7.33
-2.47
1.76
5.27
7.96
9.81
10.96
11.56
11.79
11.76
11.55
11.23
10.98
11.07
11.69
12.84
14.19
15.26
15.56
15.00
13.88
12.90
12.65
13.36
14.66
15.75
15.83
14.48
12.00
9.01
6.24
3.96
2.01
-0.12
-2.80
-6.08
-9.65
-13.02
-16.00
-18.67
-21.37
-24.33
-27.24
-29.35
-29.70
-27.60
-22.96
-16.47
-9.25
-2.46
3.08
7.17
10.14
12.62
15.08
17.61
19.95
21.63
22.27
21.71
20.18
18.11
15.94
13.93
12.23
10.82
9.61
8.53
7.46
6.39
5.28
4.14
3.00
1.79
0.40
-1.29
-3.34
-5.73
-8.25
-10.77
-13.21
-15.62
-18.09
-20.76
-23.62
-26.57
-29.50
-32.23
-34.64
-36.48
-37.39
-36.96
-34.78
-30.64
-24.65
-17.38
-9.50
-1.84
4.98
10.62
15.07
18.54
21.16
23.07
24.17
24.32
23.58
22.25
20.88
20.02
20.03
20.84
22.09
23.28
24.03
24.15
23.59
22.38
20.58
18.37
16.05
14.01
12.53
11.59
10.80
9.64
7.71
4.85
1.27
-2.57
-6.22
-9.35
-11.83
-13.74
-15.35
-17.03
-19.13
-21.83
-24.94
-28.01
-30.33
-31.19
-30.02
-26.67
-21.45
-15.07
-8.55
-2.86
1.32
3.84
5.05
5.57
6.04
6.78
7.77
8.78
9.63
10.33
11.13
12.24
13.65
15.13
16.17
16.36
15.63
14.23
12.72
11.72
11.51
11.94
12.55
12.79
12.31
11.13
9.51
7.77
6.00
4.08
1.68
-1.37
-4.97
-8.64
-11.79
-14.03
-15.37
-16.37
-17.79
-20.25
-23.83
-27.88
-31.22
-32.60
-31.30
-27.23
-21.07
-13.91
-6.84
-0.66
4.16
7.46
9.27
9.83
9.55
8.88
8.32
8.16
8.49
9.19
10.02
10.83
11.48
11.99
12.36
12.62
12.77
12.83
12.69
12.13
10.77
8.22
4.34
-0.56
-5.75
-10.29
-13.55
-15.40
-16.13
-16.27
-16.16
-15.80
-14.92
-13.33
-11.14
-8.90
-7.34
-7.18
-8.69
-11.66
-15.22
-18.19
-19.30
-17.72
-13.42
-7.17
-0.39
5.56
9.76
12.01
12.80
12.78
12.53
12.37
12.37
12.63
13.25
14.35
15.84
17.38
18.55
18.89
18.26
16.83
15.05
13.53
12.71
12.71
13.33
14.08
14.46
14.12
13.00
11.31
9.36
7.42
5.62
3.92
2.19
0.18
-2.38
-5.86
-10.43
-15.97
-21.87
-27.07
-30.38
-30.98
-28.79
-24.45
-19.02
-13.59
-8.83
-5.02
-2.09
0.06
1.44
2.01
1.84
1.05
-0.03
-0.92
-1.15
-0.26
1.95
5.36
9.47
13.45
16.46
17.97
17.82
16.33
14.04
11.43
8.73
5.91
2.78
-0.84
-4.97
-9.52
-14.32
-19.25
-24.17
-28.85
-32.87
-35.71
-36.81
-35.80
-32.76
-28.19
-22.82
-17.41
-12.34
-7.59
-2.93
1.82
6.58
10.97
14.45
16.63
17.52
17.58
17.43
17.75
18.87
20.72
22.87
24.70
25.67
25.42
24.06
21.89
19.38
16.89
14.54
12.17
9.41
5.80
1.14
-4.54
-10.95
-17.69
-24.28
-30.24
-34.96
-37.65
-37.58
-34.39
-28.40
-20.59
-12.40
-5.08
0.66
4.82
7.91
10.45
12.64
14.31
15.12
14.92
13.86
12.27
10.49
8.74
7.00
5.12
3.02
0.73
-1.61
-3.87
-5.90
-7.66
-9.17
-10.55
-11.94
-13.48
-15.32
-17.51
-20.01
-22.68
-25.31
-27.70
-29.61
-30.77
-30.67
-28.88
-25.17
-19.56
-12.50
-4.71
2.93
9.66
15.00
18.69
20.73
21.38
21.08
20.39
19.85
19.77
20.24
21.07
21.95
22.70
23.33
24.03
24.91
25.94
26.89
27.41
27.18
25.92
23.51
19.87
15.17
9.84
4.45
-0.27
-3.83
-6.22
-7.95
-9.90
-12.86
-17.33
-23.10
-29.38
-35.04
-38.98
-40.55
-39.63
-36.67
-32.53
-28.03
-23.81
-20.00
-16.30
-12.27
-7.62
-2.34
3.22
8.59
13.50
17.98
22.17
26.14
29.64
32.15
33.18
32.57
30.60
28.00
25.53
23.72
22.73
22.41
22.35
22.11
21.31
19.61
16.89
13.31
9.28
5.34
1.91
-0.86
-3.08
-5.14
-7.29
-9.55
-11.77
-13.74
-15.32
-16.48
-17.39
-18.16
-18.96
-19.93
-21.23
-22.85
-24.58
-25.98
-26.49
-25.75
-23.54
-19.96
-15.13
-9.27
-2.64
4.33
11.02
16.68
20.75
23.03
23.86
23.92
23.84
23.99
24.43
24.96
25.32
25.34
24.98
24.14
22.83
20.99
18.58
15.68
12.49
9.41
6.84
5.12
4.20
3.70
3.02
1.58
-0.87
-4.15
-7.74
-11.10
-13.96
-16.33
-18.34
-20.05
-21.25
-21.67
-21.10
-19.53
-17.39
-15.33
-14.03
-14.01
-15.47
-18.18
-21.51
-24.71
-26.94
-27.41
-25.62
-21.40
-15.12
-7.55
0.21
7.00
11.89
14.51
15.04
14.11
12.49
10.71
9.09
7.79
7.08
7.43
9.33
12.98
18.11
23.94
29.33
33.17
34.66
33.50
30.06
25.24
20.20
15.96
13.02
11.29
10.12
8.85
7.18
5.36
3.95
3.38
3.69
4.39
4.79
4.42
3.18
1.29
-0.91
-3.21
-5.55
-8.01
-10.57
-13.09
-15.36
-17.21
-18.64
-19.81
-20.95
-22.23
-23.63
-24.89
-25.67
-25.52
-24.15
-21.45
-17.67
-13.17
-8.44
-3.88
0.20
3.69
6.60
8.90
10.66
11.94
12.78
13.37
13.96
14.87
16.41
18.62
21.28
23.84
25.61
26.00
24.78
22.15
18.72
15.17
12.07
9.64
7.79
6.26
4.72
3.10
1.49
0.08
-1.04
-1.96
-2.92
-4.14
-5.58
-6.89
-7.49
-7.00
-5.60
-4.00
-3.12
-3.67
-5.75
-8.92
-12.44
-15.69
-18.50
-21.10
-23.80
-26.61
-29.08
-30.36
-29.60
-26.40
-20.95
-14.06
-6.84
-0.17
5.40
9.90
13.62
16.81
19.47
21.25
21.74
20.82
18.86
16.56
14.74
13.84
13.79
13.96
13.62
12.38
10.33
8.03
6.21
5.24
5.09
5.30
5.32
4.84
3.83
2.59
1.33
0.07
-1.37
-3.21
-5.59
-8.28
-10.73
-12.43
-13.05
-12.78
-12.09
-11.58
-11.56
-11.91
-12.15
-11.74
-10.37
-8.07
-5.20
-2.21
0.46
2.49
3.69
4.05
3.76
3.08
2.31
1.69
1.35
1.32
1.54
1.96
2.54
3.26
4.07
4.84
5.41
5.67
5.58
5.27
4.92
4.58
4.17
3.53
2.50
0.97
-0.90
-2.85
-4.58
-5.92
-6.85
-7.54
-8.23
-9.06
-10.10
-11.33
-12.74
-14.39
-16.42
-18.98
-22.05
-25.51
-29.00
-31.97
-33.83
-34.04
-32.18
-28.14
-22.22
-15.08
-7.68
-0.90
4.57
8.45
10.85
12.10
12.67
12.84
12.78
12.49
11.96
11.18
10.22
9.22
8.33
7.77
7.60
7.82
8.35
9.09
9.92
10.80
11.71
12.62
13.45
14.12
14.47
14.27
13.26
11.26
8.27
4.51
0.46
-3.33
-6.37
-8.51
-9.85
-10.89
-12.14
-14.03
-16.70
-19.95
-23.38
-26.48
-28.76
-29.84
-29.59
-28.03
-25.39
-22.11
-18.65
-15.42
-12.65
-10.45
-8.71
-7.39
-6.45
-5.90
-5.71
-5.70
-5.67
-5.41
-4.64
-3.26
-1.25
1.32
4.22
7.12
9.65
11.42
12.28
12.20
11.35
10.10
8.84
7.95
7.61
7.84
8.22
8.17
7.10
4.59
0.58
-4.63
-10.48
-16.34
-21.51
-25.45
-27.77
-28.34
-27.41
-25.55
-23.35
-21.34
-19.59
-17.75
-15.40
-12.28
-8.54
-4.71
-1.44
0.78
1.83
1.93
1.46
0.76
0.07
-0.34
-0.31
0.37
1.69
3.44
5.19
6.59
7.53
8.19
8.99
10.13
11.45
12.49
12.64
11.66
9.80
7.62
5.66
4.12
2.76
1.09
-1.10
-3.74
-6.46
-8.87
-10.86
-12.67
-14.54
-16.57
-18.44
-19.57
-19.48
-18.00
-15.39
-12.08
-8.54
-4.98
-1.43
2.20
5.91
9.54
12.80
15.51
17.58
19.08
20.13
20.80
21.04
20.67
19.50
17.44
14.65
11.42
8.22
5.53
3.66
2.73
2.58
2.79
2.90
2.56
1.62
0.17
-1.60
-3.51
-5.55
-7.75
-10.19
-12.92
-15.89
-19.03
-22.29
-25.62
-28.98
-32.06
-34.37
-35.29
-34.28
-31.17
-26.28
-20.21
-13.80
-7.88
-3.10
0.27
2.20
2.95
2.93
2.70
2.86
3.80
5.64
8.18
11.02
13.63
15.71
17.13
17.91
18.16
17.87
16.99
15.54
13.56
11.28
9.11
7.28
5.92
5.02
4.35
3.80
3.44
3.30
3.43
3.62
3.46
2.40
0.09
-3.46
-7.80
-12.30
-16.49
-20.16
-23.43
-26.55
-29.62
-32.30
-33.99
-34.00
-31.95
-27.95
-22.52
-16.42
-10.38
-4.80
0.13
4.30
7.70
10.23
11.75
12.38
12.47
12.48
12.88
13.91
15.45
17.14
18.49
19.19
19.14
18.43
17.32
16.05
14.71
13.36
11.88
10.14
8.04
5.62
3.15
1.05
-0.34
-0.83
-0.60
-0.19
-0.13
-0.76
-1.98
-3.42
-4.65
-5.43
-5.93
-6.45
-7.35
-8.78
-10.71
-12.96
-15.29
-17.38
-18.93
-19.69
-19.49
-18.47
-16.92
-15.13
-13.37
-11.66
-9.91
-8.18
-6.59
-5.33
-4.51
-4.01
-3.50
-2.63
-1.06
1.29
4.30
7.73
11.32
14.89
18.23
21.25
23.78
25.69
26.74
26.72
25.34
22.44
18.07
12.62
6.78
1.34
-2.96
-5.64
-6.61
-6.14
-4.84
-3.34
-2.19
-1.69
-2.05
-3.33
-5.47
-8.35
-11.61
-14.67
-16.96
-17.96
-17.41
-15.43
-12.37
-8.65
-4.65
-0.64
3.22
6.85
10.21
13.37
16.41
19.43
22.43
25.23
27.59
29.21
29.81
29.28
27.62
25.02
21.73
18.15
14.68
11.73
9.60
8.33
7.77
7.54
7.18
6.30
4.64
2.17
-0.92
-4.13
-6.95
-8.90
-9.81
-9.91
-9.77
-10.17
-11.76
-14.89
-19.43
-24.74
-29.94
-34.04
-36.27
-36.20
-33.85
-29.59
-24.07
-17.94
-11.86
-6.38
-1.87
1.46
3.63
4.87
5.65
6.33
7.25
8.49
9.91
11.37
12.71
13.87
14.83
15.51
15.85
15.89
15.89
16.22
17.22
18.86
20.55
21.40
20.47
17.25
11.90
5.22
-1.60
-7.32
-11.09
-12.65
-12.41
-11.25
-10.32
-10.59
-12.53
-16.01
-20.16
-23.90
-26.17
-26.41
-24.65
-21.30
-16.87
-11.84
-6.50
-1.07
4.08
8.61
12.19
14.69
16.25
17.26
18.09
19.00
20.03
21.18
22.41
23.77
25.24
26.77
28.15
29.10
29.35
28.87
27.72
26.12
24.24
22.15
19.80
17.11
14.06
10.73
7.23
3.60
-0.19
-4.20
-8.48
-12.94
-17.34
-21.49
-25.27
-28.81
-32.29
-35.76
-38.84
-40.89
-41.05
-38.73
-33.89
-27.09
-19.43
-11.92
-5.28
0.39
5.35
9.91
14.13
17.76
20.28
21.38
21.11
19.89
18.35
17.01
16.06
15.44
14.98
14.56
14.26
14.29
14.80
15.84
17.27
18.87
20.26
21.09
21.17
20.38
18.83
16.72
14.38
12.13
10.17
8.51
6.83
4.62
1.48
-2.73
-7.75
-12.82
-17.13
-20.03
-21.08
-20.04
-16.84
-11.62
-5.05
1.62
6.80
9.09
8.04
4.32
-0.41
-4.39
-6.54
-6.81
-5.86
-4.58
-3.40
-2.24
-0.79
1.07
3.10
4.67
5.35
4.95
3.85
2.60
1.73
1.44
1.42
1.13
0.03
-2.06
-4.96
-8.11
-10.87
-12.95
-14.51
-16.21
-18.78
-22.66
-27.53
-32.38
-35.93
-37.12
-35.55
-31.70
-26.52
-20.96
-15.60
-10.48
-5.29
0.25
6.15
12.11
17.73
22.58
26.52
29.48
31.53
32.75
33.33
33.47
33.30
32.93
32.33
31.45
30.21
28.56
26.49
23.95
20.99
17.65
14.04
10.33
6.75
3.44
0.57
-1.87
-3.96
-5.80
-7.43
-8.88
-10.13
-11.23
-12.50
-14.41
-17.33
-21.46
-26.41
-31.21
-34.64
-35.76
-34.21
-30.44
-25.42
-20.08
-15.04
-10.35
-5.65
-0.59
4.95
10.73
16.29
21.13
24.95
27.67
29.38
30.23
30.41
30.15
29.71
29.25
28.86
28.47
27.95
27.20
26.29
25.26
24.20
23.01
21.32
18.78
15.22
10.73
5.74
0.84
-3.59
-7.31
-10.40
-13.06
-15.64
-18.58
-22.34
-27.22
-33.05
-39.11
-44.19
-46.98
-46.59
-42.88
-36.51
-28.66
-20.55
-13.12
-6.87
-1.83
2.21
5.58
8.62
11.54
14.41
17.09
19.25
20.56
20.90
20.39
19.39
18.35
17.58
17.30
17.56
18.30
19.36
20.57
21.61
22.13
21.92
20.90
19.12
16.79
14.07
11.10
7.99
4.84
1.80
-0.98
-3.47
-5.84
-8.37
-11.45
-15.37
-20.22
-25.86
-31.85
-37.45
-41.87
-44.26
-44.02
-40.86
-35.06
-27.35
-18.76
-10.22
-2.38
4.58
10.78
16.49
21.83
26.63
30.65
33.54
35.20
35.74
35.33
34.30
32.91
31.35
29.77
28.30
26.97
25.75
24.61
23.53
22.54
21.66
20.73
19.57
17.97
15.85
13.29
10.49
7.65
4.90
2.21
-0.53
-3.34
-6.22
-9.12
-12.10
-15.25
-18.76
-22.58
-26.40
-29.63
-31.44
-31.26
-28.93
-24.80
-19.71
-14.70
-10.53
-7.49
-5.36
-3.60
-1.73
0.46
2.90
5.27
7.31
8.96
10.30
11.42
12.28
12.66
12.37
11.40
10.00
8.53
7.28
6.28
5.20
3.73
1.69
-0.79
-3.35
-5.48
-6.71
-6.78
-5.71
-3.75
-1.38
0.86
2.46
3.21
2.98
1.90
0.19
-1.91
-4.08
-5.93
-7.03
-7.00
-5.73
-3.48
-0.81
1.61
3.34
4.18
4.36
4.18
3.92
3.77
3.80
3.98
4.35
5.05
6.05
7.36
8.89
10.49
11.95
13.11
13.72
13.66
12.72
10.90
8.38
5.43
2.40
-0.44
-2.94
-5.19
-7.36
-9.72
-12.65
-16.45
-21.36
-27.25
-33.56
-39.28
-43.21
-44.32
-42.17
-37.10
-30.08
-22.39
-15.06
-8.69
-3.25
1.62
6.31
11.03
15.66
19.94
23.38
25.67
26.67
26.52
25.61
24.41
23.36
22.63
22.14
21.59
20.74
19.44
17.69
15.52
12.88
9.74
5.97
1.68
-2.77
-6.80
-9.88
-11.64
-12.14
-11.86
-11.47
-11.72
-13.00
-15.36
-18.36
-21.25
-23.24
-23.70
-22.35
-19.35
-15.15
-10.37
-5.73
-1.68
1.51
3.81
5.37
6.33
6.88
7.19
7.44
7.85
8.69
10.14
12.16
14.52
16.75
18.54
19.78
20.53
20.95
21.13
21.01
20.48
19.49
18.16
16.64
14.92
12.70
9.64
5.59
0.90
-3.70
-7.36
-9.63
-10.73
-11.32
-12.35
-14.43
-17.66
-21.59
-25.39
-28.13
-29.01
-27.62
-23.95
-18.63
-12.52
-6.67
-1.85
1.64
4.03
5.87
7.69
9.82
12.20
14.50
16.30
17.29
17.46
17.11
16.74
16.83
17.64
19.06
20.76
22.29
23.21
23.14
21.82
19.03
14.71
8.98
2.29
-4.67
-10.99
-15.89
-18.91
-20.08
-19.91
-19.20
-18.69
-18.99
-20.29
-22.51
-25.40
-28.58
-31.74
-34.53
-36.50
-37.11
-35.91
-32.67
-27.58
-21.14
-14.06
-7.06
-0.54
5.36
10.81
15.94
20.74
24.81
27.67
29.02
28.94
27.87
26.53
25.54
25.01
24.66
23.94
22.41
20.02
17.11
14.07
11.13
8.20
5.00
1.49
-2.10
-5.15
-7.01
-7.41
-6.56
-5.28
-4.50
-5.05
-7.32
-11.23
-16.14
-21.13
-25.23
-27.69
-28.13
-26.65
-23.77
-19.99
-15.91
-11.78
-7.69
-3.61
0.49
4.58
8.58
12.30
15.61
18.27
19.97
20.43
19.54
17.49
14.74
11.96
9.67
8.25
7.72
7.81
8.04
7.93
7.19
5.74
3.80
1.82
0.26
-0.65
-1.06
-1.44
-2.48
-4.71
-8.37
-13.23
-18.70
-23.92
-28.00
-30.16
-29.99
-27.50
-23.01
-17.17
-10.70
-4.32
1.46
6.22
9.76
12.13
13.51
14.21
14.48
14.42
13.96
12.97
11.46
9.66
7.82
6.27
5.20
4.58
4.48
4.91
5.90
7.33
8.83
9.77
9.55
7.82
4.65
0.51
-3.95
-8.31
-12.39
-16.36
-20.34
-24.31
-27.89
-30.48
-31.44
-30.35
-27.18
-22.30
-16.44
-10.40
-4.82
-0.10
3.66
6.65
9.04
10.95
12.51
13.73
14.61
15.08
14.99
14.17
12.67
10.67
8.57
6.90
6.05
6.11
6.86
7.94
8.87
9.37
9.19
8.13
6.15
3.28
-0.30
-4.23
-8.18
-11.99
-15.67
-19.47
-23.51
-27.63
-31.33
-33.84
-34.36
-32.57
-28.73
-23.66
-18.43
-13.93
-10.52
-8.11
-6.25
-4.45
-2.50
-0.40
1.74
3.82
5.85
7.91
9.95
11.95
13.78
15.19
15.92
15.78
14.55
12.34
9.43
6.32
3.60
1.59
0.28
-0.63
-1.55
-2.95
-4.94
-7.57
-10.67
-14.05
-17.46
-20.47
-22.51
-23.00
-21.50
-17.87
-12.35
-5.55
1.73
8.61
14.42
18.81
21.65
23.08
23.38
22.83
21.63
20.03
18.22
16.39
14.85
13.69
12.93
12.41
11.85
11.03
9.97
8.81
7.76
6.92
6.18
5.30
3.94
1.91
-0.70
-3.73
-6.90
-10.01
-12.97
-15.81
-18.61
-21.46
-24.40
-27.36
-30.05
-31.99
-32.56
-31.14
-27.32
-21.12
-13.02
-3.89
5.22
13.35
19.87
24.47
27.34
28.80
29.19
28.74
27.55
25.68
23.18
20.30
17.30
14.48
12.09
10.14
8.51
7.02
5.53
3.93
2.30
0.69
-0.87
-2.48
-4.31
-6.46
-8.94
-11.56
-14.00
-15.98
-17.53
-18.90
-20.48
-22.51
-24.83
-26.91
-27.88
-26.88
-23.37
-17.47
-9.86
-1.60
6.06
12.20
16.24
18.12
18.13
16.76
14.42
11.51
8.51
5.73
3.52
2.01
1.22
1.02
1.20
1.66
2.31
3.08
3.82
4.41
4.57
4.13
3.04
1.42
-0.50
-2.41
-4.09
-5.62
-7.16
-9.13
-11.79
-15.13
-18.78
-22.09
-24.32
-25.05
-24.24
-22.12
-19.10
-15.50
-11.42
-6.95
-2.18
2.63
6.97
10.45
12.82
14.09
14.59
14.68
14.63
14.65
14.78
15.03
15.45
16.10
16.97
17.94
18.78
19.01
18.21
16.10
12.68
8.27
3.43
-1.36
-5.77
-9.67
-13.24
-16.69
-20.22
-23.92
-27.74
-31.47
-34.68
-36.75
-37.05
-35.18
-31.07
-25.26
-18.66
-12.20
-6.63
-2.17
1.23
3.93
6.23
8.29
10.18
11.80
13.03
13.72
13.76
13.15
12.13
10.99
10.06
9.39
8.81
8.12
7.20
6.11
5.08
4.30
3.65
2.77
1.34
-0.71
-2.96
-4.88
-6.00
-6.28
-6.23
-6.62
-8.12
-10.92
-14.62
-18.39
-21.35
-22.83
-22.60
-20.81
-17.80
-13.96
-9.65
-5.09
-0.50
3.94
8.06
11.74
14.83
17.19
18.78
19.61
19.79
19.47
18.86
18.16
17.47
16.81
16.28
15.84
15.48
15.13
14.64
13.86
12.57
10.64
8.02
4.77
1.02
-2.90
-6.65
-9.90
-12.46
-14.41
-15.96
-17.49
-19.28
-21.49
-24.13
-27.12
-30.16
-32.83
-34.49
-34.34
-31.71
-26.34
-18.61
-9.56
-0.53
7.29
13.32
17.56
20.44
22.47
23.81
24.50
24.37
23.24
21.17
18.39
15.17
11.98
9.24
7.30
6.34
6.08
6.08
5.68
4.47
2.39
-0.21
-2.88
-5.30
-7.49
-9.79
-12.61
-16.33
-20.96
-26.04
-30.67
-33.75
-34.45
-32.57
-29.03
-25.73
-24.73
-27.51
-33.98
-42.18
-48.89
-50.67
-44.87
-30.73
-9.68
14.54
36.52
50.52
52.21
40.60
19.10
-4.72
-21.42
-23.05
-6.38
25.59
64.75
101.07
126.56
137.48
134.81
122.38
104.48
84.17
62.92
41.54
21.13
3.48
-9.49
-16.84
-19.37
-19.40
-19.68
-22.27
-27.60
-34.59
-41.28
-46.03
-48.16
-48.21
-47.37
-46.54
-45.96
-44.90
-42.32
-37.42
-30.20
-21.52
-12.65
-4.84
1.26
5.48
8.08
9.38
9.58
8.89
7.54
6.02
4.80
4.32
4.71
5.80
7.12
8.13
8.40
7.68
6.03
3.62
0.70
-2.52
-5.88
-9.12
-12.11
-14.65
-16.74
-18.48
-20.21
-22.38
-25.26
-28.81
-32.34
-34.87
-35.28
-32.91
-27.77
-20.63
-12.72
-5.29
0.65
4.77
7.09
8.11
8.33
8.34
8.58
9.17
10.03
10.78
11.10
10.85
10.17
9.43
8.91
8.75
8.77
8.77
8.49
7.85
6.79
5.26
3.21
0.72
-1.95
-4.37
-6.02
-6.74
-6.60
-6.25
-6.49
-7.90
-10.65
-14.22
-17.74
-20.10
-20.59
-19.08
-15.92
-11.88
-7.71
-3.80
-0.20
3.35
7.08
11.01
14.88
18.35
21.06
22.89
23.88
24.21
24.03
23.42
22.29
20.56
18.24
15.50
12.70
10.09
7.95
6.21
4.67
2.97
0.90
-1.51
-3.98
-6.03
-7.29
-7.63
-7.25
-6.57
-6.09
-6.20
-7.08
-8.62
-10.52
-12.24
-13.23
-12.95
-11.15
-7.92
-3.62
1.16
5.80
9.74
12.66
14.53
15.48
15.77
15.62
15.15
14.44
13.52
12.53
11.63
10.98
10.61
10.39
10.16
9.74
9.09
8.33
7.69
7.33
7.27
7.36
7.41
7.13
6.30
4.78
2.56
-0.21
-3.30
-6.48
-9.52
-12.32
-14.90
-17.42
-20.16
-23.42
-27.34
-31.73
-36.04
-39.54
-41.41
-41.10
-38.34
-33.20
-26.01
-17.25
-7.56
2.22
11.21
18.59
23.91
27.11
28.57
28.81
28.27
27.20
25.68
23.74
21.56
19.51
18.00
17.34
17.65
18.80
20.43
22.05
23.10
23.16
22.02
19.72
16.52
12.78
8.80
4.83
1.09
-2.16
-4.60
-5.99
-6.28
-5.78
-5.15
-5.15
-6.23
-8.39
-10.90
-12.73
-12.85
-10.73
-6.47
-0.79
5.26
10.70
14.80
17.29
18.18
17.74
16.33
14.39
12.39
10.68
9.47
8.82
8.54
8.46
8.41
8.32
8.24
8.27
8.51
9.00
9.57
9.87
9.33
7.37
3.68
-1.59
-7.85
-14.12
-19.41
-23.07
-25.04
-25.77
-25.98
-26.41
-27.60
-29.74
-32.74
-36.19
-39.44
-41.65
-42.00
-39.90
-35.33
-28.79
-21.25
-13.82
-7.32
-2.15
1.80
4.97
7.89
10.88
13.96
16.85
19.15
20.57
21.03
20.80
20.22
19.59
19.04
18.55
18.06
17.59
17.22
16.87
16.29
15.05
12.67
9.00
4.26
-0.82
-5.32
-8.47
-9.99
-10.16
-9.77
-9.80
-11.16
-14.24
-18.85
-24.22
-29.16
-32.51
-33.40
-31.50
-27.09
-20.91
-13.93
-7.05
-0.89
4.33
8.71
12.48
15.85
18.95
21.75
24.22
26.34
28.07
29.43
30.38
30.81
30.57
29.73
28.48
27.05
25.61
24.02
22.11
19.62
16.60
13.27
9.92
6.79
3.84
0.86
-2.43
-6.16
-10.28
-14.61
-18.92
-23.06
-26.94
-30.46
-33.59
-36.38
-38.78
-40.65
-41.63
-41.16
-38.78
-34.40
-28.37
-21.43
-14.52
-8.23
-2.79
1.93
6.30
10.41
14.22
17.39
19.57
20.51
20.27
19.21
17.78
16.51
15.69
15.36
15.35
15.40
15.44
15.58
15.97
16.61
17.31
17.65
17.23
15.90
13.65
10.73
7.52
4.28
1.18
-1.75
-4.70
-7.95
-11.79
-16.39
-21.47
-26.36
-30.14
-31.93
-31.26
-28.25
-23.53
-17.96
-12.35
-7.26
-2.90
0.82
4.15
7.31
10.38
13.28
15.85
17.88
19.27
20.01
20.09
19.55
18.42
16.73
14.71
12.67
10.88
9.40
8.03
6.29
3.74
0.20
-4.04
-8.33
-11.93
-14.22
-15.13
-15.02
-14.65
-14.81
-15.97
-18.18
-20.96
-23.58
-25.24
-25.44
-24.03
-21.27
-17.62
-13.75
-10.20
-7.26
-4.96
-3.10
-1.31
0.78
3.27
6.09
8.98
11.52
13.44
14.64
15.23
15.41
15.43
15.48
15.71
16.12
16.70
17.36
17.97
18.40
18.48
18.06
16.88
14.71
11.45
7.21
2.31
-2.77
-7.53
-11.72
-15.29
-18.51
-21.66
-24.86
-27.90
-30.13
-30.77
-29.25
-25.43
-19.77
-13.31
-7.10
-2.03
1.63
4.02
5.61
6.86
7.94
8.79
9.19
9.01
8.37
7.59
7.12
7.21
7.88
8.85
9.73
10.15
10.06
9.59
9.03
8.54
8.15
7.59
6.42
4.30
1.11
-2.84
-6.93
-10.51
-13.07
-14.50
-14.99
-14.96
-14.87
-15.14
-16.11
-17.94
-20.48
-23.26
-25.51
-26.31
-25.06
-21.71
-16.85
-11.53
-6.77
-3.17
-0.70
1.17
3.05
5.40
8.29
11.48
14.60
17.35
19.57
21.33
22.82
24.23
25.68
27.25
28.86
30.31
31.35
31.70
31.13
29.55
27.02
23.78
20.21
16.67
13.46
10.66
8.16
5.81
3.42
0.97
-1.46
-3.84
-6.21
-8.77
-11.70
-15.02
-18.64
-22.32
-25.85
-29.02
-31.67
-33.56
-34.23
-33.32
-30.69
-26.58
-21.53
-16.29
-11.36
-7.03
-3.20
0.32
3.59
6.33
8.14
8.67
7.94
6.48
4.99
4.16
4.26
5.06
6.05
6.80
7.16
7.28
7.46
7.86
8.49
9.12
9.60
9.74
9.55
8.98
7.98
6.53
4.60
2.17
-0.73
-4.14
-8.06
-12.42
-17.02
-21.39
-24.90
-26.91
-26.92
-24.78
-20.74
-15.40
-9.50
-3.75
1.39
5.84
9.61
12.88
15.58
17.58
18.68
18.91
18.62
18.30
18.44
19.19
20.36
21.47
22.08
21.96
21.23
20.21
19.20
18.31
17.31
15.83
13.52
10.28
6.35
2.25
-1.42
-4.26
-6.11
-7.22
-8.00
-8.86
-10.32
-12.74
-16.36
-21.18
-26.74
-32.18
-36.46
-38.54
-37.84
-34.49
-29.15
-22.83
-16.44
-10.55
-5.25
-0.35
4.41
9.13
13.57
17.35
20.07
21.52
21.78
21.13
19.87
18.17
16.11
13.69
11.10
8.66
6.74
5.64
5.43
5.83
6.30
6.26
5.27
3.28
0.65
-1.91
-3.63
-4.08
-3.31
-2.06
-1.27
-1.98
-4.68
-9.25
-15.05
-21.07
-26.28
-29.83
-31.23
-30.27
-27.20
-22.56
-17.05
-11.38
-6.05
-1.40
2.41
5.36
7.50
8.92
9.77
10.33
10.84
11.46
12.21
12.81
13.04
12.76
12.07
11.24
10.57
10.17
9.93
9.53
8.53
6.63
3.78
0.05
-4.36
-9.19
-13.86
-17.48
-18.98
-17.56
-13.16
-6.75
-0.06
5.09
7.52
7.15
4.67
1.11
-2.83
-7.04
-11.66
-16.71
-21.60
-25.36
-26.92
-25.60
-21.45
-15.18
-8.01
-1.16
4.46
8.74
12.12
15.35
18.96
22.95
26.78
29.65
31.07
31.08
30.37
29.67
29.55
30.06
30.87
31.61
32.06
32.32
32.58
32.92
33.07
32.66
31.24
28.58
24.73
20.04
15.03
10.23
6.08
2.68
-0.09
-2.62
-5.30
-8.29
-11.43
-14.34
-16.64
-18.16
-19.15
-20.10
-21.49
-23.62
-26.42
-29.59
-32.80
-35.72
-38.03
-39.37
-39.21
-37.16
-33.04
-27.06
-19.92
-12.59
-6.07
-0.95
2.56
4.67
5.86
6.54
7.06
7.45
7.61
7.41
6.87
6.25
6.03
6.56
7.97
10.03
12.16
13.80
14.56
14.45
13.68
12.67
11.70
10.80
9.87
8.60
6.89
4.82
2.68
0.91
-0.16
-0.48
-0.37
-0.39
-1.14
-2.99
-6.04
-10.00
-14.20
-17.74
-19.79
-19.71
-17.38
-13.21
-8.04
-2.90
1.37
4.35
5.99
6.51
6.19
5.31
3.99
2.42
0.82
-0.61
-1.59
-1.94
-1.60
-0.56
1.03
3.08
5.41
7.88
10.30
12.32
13.48
13.31
11.60
8.43
4.22
-0.36
-4.74
-8.53
-11.70
-14.34
-16.64
-18.69
-20.51
-22.07
-23.33
-24.20
-24.42
-23.63
-21.44
-17.72
-12.73
-7.11
-1.66
3.03
6.74
9.63
12.04
14.23
16.21
17.66
18.26
17.80
16.33
14.14
11.72
9.47
7.63
6.29
5.39
4.78
4.36
4.12
4.09
4.27
4.54
4.68
4.49
3.72
2.32
0.31
-2.18
-4.97
-7.92
-11.00
-14.30
-17.98
-22.15
-26.79
-31.66
-36.30
-40.04
-42.17
-42.12
-39.59
-34.71
-28.04
-20.33
-12.41
-4.97
1.58
7.16
11.85
15.85
19.28
22.17
24.50
26.24
27.38
28.01
28.21
27.99
27.31
26.06
24.12
21.50
18.29
14.66
10.89
7.24
3.96
1.22
-0.99
-2.73
-4.16
-5.48
-6.75
-8.02
-9.31
-10.60
-11.94
-13.36
-14.90
-16.52
-18.37
-20.63
-23.55
-27.24
-31.36
-35.20
-37.80
-38.19
-35.89
-31.00
-24.07
-15.93
-7.44
0.78
8.19
14.40
19.16
22.40
24.26
25.12
25.41
25.47
25.52
25.63
25.75
25.83
25.78
25.57
25.21
24.71
24.02
23.14
21.96
20.29
17.96
14.92
11.31
7.51
3.84
0.58
-2.27
-4.92
-7.69
-10.73
-14.07
-17.43
-20.37
-22.47
-23.43
-23.13
-21.76
-19.73
-17.65
-16.13
-15.73
-16.74
-19.15
-22.48
-25.98
-28.74
-29.99
-29.25
-26.56
-22.37
-17.31
-12.00
-6.94
-2.34
1.82
5.72
9.60
13.56
17.55
21.32
24.53
26.88
28.26
28.84
28.93
28.80
28.60
28.26
27.69
26.88
26.01
25.37
25.12
25.13
24.94
24.01
21.87
18.42
13.87
8.72
3.52
-1.32
-5.62
-9.37
-12.54
-15.15
-17.12
-18.45
-19.31
-20.19
-21.83
-24.86
-29.52
-35.30
-41.03
-45.09
-46.20
-43.83
-38.47
-31.33
-23.87
-17.20
-11.84
-7.70
-4.35
-1.43
1.28
3.89
6.45
9.03
11.69
14.34
16.71
18.41
19.15
18.92
18.14
17.40
17.24
17.95
19.45
21.36
23.10
24.21
24.32
23.39
21.54
19.15
16.64
14.37
12.49
10.91
9.40
7.76
5.89
3.86
1.79
-0.30
-2.61
-5.47
-9.19
-13.96
-19.72
-26.23
-33.10
-39.77
-45.41
-49.19
-50.28
-48.25
-43.36
-36.48
-28.84
-21.61
-15.47
-10.56
-6.51
-2.73
1.22
5.44
9.71
13.61
16.70
18.88
20.28
21.30
22.39
23.85
25.68
27.67
29.49
30.92
31.83
32.26
32.17
31.63
30.58
28.82
26.26
22.81
18.41
13.25
7.67
2.14
-2.91
-7.18
-10.71
-13.85
-17.11
-20.91
-25.39
-30.23
-34.79
-38.22
-39.89
-39.36
-36.53
-31.61
-25.05
-17.48
-9.66
-2.37
3.71
8.19
10.99
12.42
12.95
13.07
13.08
13.05
12.76
12.00
10.67
8.82
6.70
4.50
2.32
0.16
-2.02
-4.00
-5.41
-5.85
-5.13
-3.45
-1.53
-0.16
0.00
-1.22
-3.56
-6.54
-9.70
-12.91
-16.44
-20.73
-26.03
-32.13
-38.34
-43.56
-46.62
-46.68
-43.63
-37.93
-30.53
-22.50
-14.70
-7.65
-1.46
3.95
8.68
12.76
16.02
18.15
19.02
18.74
17.79
16.89
16.73
17.60
19.33
21.44
23.35
24.76
25.77
26.76
28.02
29.48
30.67
30.95
29.85
27.32
23.83
20.09
16.81
14.36
12.67
11.39
10.01
8.09
5.35
1.68
-2.80
-7.79
-12.82
-17.18
-20.18
-21.24
-20.22
-17.48
-13.78
-10.12
-7.26
-5.47
-4.53
-3.88
-2.94
-1.40
0.72
3.14
5.51
7.52
9.07
10.19
11.04
11.78
12.44
12.92
13.04
12.65
11.77
10.65
9.63
8.87
8.33
7.67
6.35
3.98
0.45
-3.91
-8.54
-12.74
-16.08
-18.45
-20.21
-21.95
-24.23
-27.31
-30.97
-34.65
-37.62
-39.19
-38.92
-36.63
-32.32
-26.23
-18.82
-10.63
-2.28
5.72
13.08
19.68
25.46
30.28
33.96
36.38
37.71
38.41
39.05
40.20
41.98
44.23
46.48
48.26
49.19
49.14
48.11
46.24
43.73
40.73
37.39
33.79
29.94
25.77
21.31
16.54
11.46
6.17
0.72
-4.76
-9.98
-14.75
-18.90
-22.47
-25.66
-28.72
-31.73
-34.50
-36.61
-37.47
-36.60
-33.78
-29.15
-23.21
-16.67
-10.26
-4.55
0.25
4.22
7.50
10.27
12.53
14.21
15.24
15.81
16.28
17.09
18.62
20.92
23.73
26.56
28.88
30.26
30.45
29.30
26.84
23.20
18.68
13.67
8.66
4.04
-0.02
-3.54
-6.67
-9.52
-12.04
-14.08
-15.50
-16.35
-16.87
-17.39
-18.23
-19.54
-21.20
-22.98
-24.57
-25.58
-25.61
-24.29
-21.45
-17.18
-11.88
-6.20
-0.87
3.53
6.81
9.00
10.45
11.47
12.22
12.72
12.94
12.92
12.84
13.01
13.56
14.42
15.32
15.91
15.98
15.61
15.04
14.47
13.89
12.97
11.28
8.59
5.02
1.10
-2.61
-5.67
-7.97
-9.77
-11.52
-13.66
-16.57
-20.46
-25.26
-30.63
-35.90
-40.11
-42.26
-41.69
-38.31
-32.63
-25.68
-18.50
-11.84
-5.92
-0.56
4.74
10.25
15.98
21.50
26.16
29.38
30.84
30.65
29.24
27.12
24.72
22.22
19.63
16.95
14.29
11.88
9.94
8.50
7.28
5.77
3.45
-0.01
-4.42
-9.26
-13.79
-17.40
-19.89
-21.52
-22.83
-24.46
-26.76
-29.75
-32.93
-35.55
-36.76
-35.95
-32.80
-27.37
-20.07
-11.54
-2.57
5.90
13.09
18.44
21.80
23.46
24.01
24.16
24.37
24.82
25.30
25.49
25.19
24.32
23.07
21.66
20.34
19.27
18.52
18.02
17.56
16.84
15.48
13.23
9.97
5.92
1.53
-2.66
-6.23
-9.05
-11.28
-13.40
-15.87
-19.07
-23.18
-28.23
-34.12
-40.47
-46.61
-51.47
-53.88
-52.95
-48.54
-41.29
-32.47
-23.38
-14.86
-7.19
-0.04
6.90
13.73
20.20
25.85
30.31
33.45
35.39
36.32
36.44
36.00
35.23
34.37
33.41
32.21
30.50
28.05
24.83
21.12
17.36
13.82
10.58
7.35
3.78
-0.32
-4.90
-9.67
-14.35
-18.71
-22.60
-25.86
-28.29
-29.83
-30.62
-30.95
-31.27
-31.75
-32.29
-32.44
-31.51
-28.99
-24.74
-19.02
-12.38
-5.39
1.34
7.35
12.42
16.49
19.80
22.58
25.08
27.26
29.05
30.30
30.97
31.18
31.09
30.77
30.08
28.76
26.60
23.56
20.02
16.56
13.70
11.86
10.98
10.70
10.47
9.77
8.30
6.18
3.83
1.70
0.07
-1.16
-2.39
-4.18
-6.84
-10.51
-14.92
-19.77
-24.68
-29.40
-33.63
-36.99
-38.98
-39.08
-37.07
-33.04
-27.54
-21.34
-15.19
-9.66
-4.98
-1.12
1.99
4.43
6.18
7.17
7.45
7.22
6.81
6.67
7.07
8.00
9.15
9.99
10.00
8.98
7.17
5.22
3.92
3.73
4.72
6.48
8.35
9.79
10.55
10.68
10.25
9.32
7.74
5.29
1.80
-2.58
-7.61
-12.81
-17.64
-21.48
-23.73
-24.01
-22.21
-18.65
-13.96
-8.87
-3.96
0.44
4.20
7.26
9.49
10.82
11.20
10.80
9.90
8.76
7.54
6.19
4.75
3.33
2.24
1.86
2.42
3.84
5.83
7.98
9.83
11.13
11.68
11.39
10.26
8.53
6.44
4.35
2.42
0.58
-1.40
-3.83
-6.93
-10.63
-14.65
-18.53
-21.79
-24.05
-25.07
-24.75
-23.19
-20.60
-17.35
-13.91
-10.71
-8.07
-6.07
-4.63
-3.49
-2.42
-1.21
0.26
2.04
4.15
6.58
9.36
12.32
15.29
17.83
19.56
20.21
19.74
18.36
16.41
14.19
11.78
9.17
6.26
2.92
-0.87
-5.07
-9.54
-14.19
-18.82
-23.33
-27.70
-32.03
-36.49
-41.11
-45.55
-49.18
-51.08
-50.46
-47.04
-41.17
-33.78
-26.05
-18.98
-13.17
-8.59
-4.93
-1.77
1.18
3.94
6.51
8.82
10.96
13.04
15.15
17.24
19.10
20.46
21.06
20.76
19.61
17.84
15.76
13.58
11.49
9.49
7.51
5.53
3.57
1.64
-0.33
-2.47
-4.98
-7.95
-11.27
-14.78
-18.30
-21.74
-25.10
-28.45
-31.56
-34.01
-35.08
-34.15
-30.89
-25.49
-18.62
-11.19
-4.11
1.99
6.79
10.30
12.74
14.50
15.99
17.54
19.37
21.52
23.89
26.28
28.55
30.64
32.45
34.05
35.48
36.82
38.14
39.41
40.25
40.06
38.25
34.52
29.18
23.05
17.24
12.53
9.05
6.24
3.27
-0.47
-5.03
-10.01
-14.91
-19.41
-23.45
-26.97
-29.64
-30.80
-29.76
-26.26
-20.79
-14.51
-8.69
-4.23
-1.36
0.28
1.31
2.14
2.83
3.29
3.31
2.85
1.96
0.72
-0.86
-2.79
-5.00
-7.30
-9.21
-10.29
-10.35
-9.43
-7.95
-6.29
-4.77
-3.44
-2.23
-1.08
-0.12
0.31
-0.09
-1.49
-3.81
-6.83
-10.22
-13.77
-17.18
-20.18
-22.24
-22.75
-21.23
-17.50
-11.90
-5.22
1.51
7.39
11.85
14.80
16.60
17.65
18.25
18.41
17.75
15.90
12.62
8.09
2.91
-2.04
-5.97
-8.35
-9.00
-8.26
-6.77
-5.30
-4.57
-5.00
-6.47
-8.62
-10.79
-12.49
-13.56
-14.16
-14.67
-15.41
-16.57
-18.09
-19.86
-21.59
-22.81
-22.97
-21.40
-17.66
-11.76
-4.31
3.56
10.65
16.05
19.44
21.08
21.66
21.89
22.32
23.14
24.10
24.76
24.62
23.48
21.56
19.46
17.93
17.46
18.03
19.21
20.28
20.50
19.36
16.62
12.40
7.03
1.14
-4.38
-8.79
-11.67
-13.10
-13.75
-14.57
-16.42
-19.73
-24.39
-29.74
-34.83
-38.62
-40.32
-39.50
-36.15
-30.68
-23.65
-15.75
-7.64
0.04
6.66
11.80
15.28
17.24
18.18
18.68
19.21
20.00
20.97
22.05
23.23
24.56
26.02
27.41
28.34
28.47
27.57
25.72
23.22
20.47
17.85
15.68
14.09
13.09
12.48
11.93
10.93
9.08
6.21
2.44
-1.76
-5.83
-9.41
-12.38
-14.89
-17.20
-19.48
-21.74
-24.07
-26.65
-29.70
-33.15
-36.43
-38.27
-37.18
-32.22
-23.47
-12.27
-0.66
9.38
16.79
21.52
24.36
26.20
27.51
28.30
28.27
27.41
26.10
25.06
25.00
26.21
28.36
30.66
32.08
31.82
29.77
26.34
22.51
19.28
17.38
16.74
16.68
16.27
14.85
12.38
9.35
6.28
3.30
-0.04
-4.32
-9.92
-16.37
-22.76
-27.92
-31.18
-32.52
-32.48
-31.64
-30.20
-28.01
-24.70
-20.23
-14.91
-9.41
-4.39
-0.32
2.61
4.46
5.33
5.27
4.24
2.25
-0.48
-3.63
-6.67
-9.12
-10.67
-11.15
-10.69
-9.56
-8.12
-6.60
-5.15
-3.60
-1.81
0.19
2.05
3.22
3.18
1.93
0.01
-1.65
-2.18
-1.37
0.10
1.01
-0.00
-3.82
-10.44
-18.99
-28.03
-35.92
-41.28
-43.28
-41.73
-37.22
-30.72
-23.34
-15.98
-9.21
-3.35
1.51
5.25
7.92
9.69
10.87
11.90
12.96
14.02
14.72
14.72
13.94
12.67
11.54
11.07
11.54
12.72
14.15
15.38
16.13
16.30
15.86
14.67
12.52
9.37
5.46
1.47
-1.88
-4.00
-4.88
-5.25
-6.13
-8.48
-12.59
-17.90
-23.12
-26.69
-27.26
-24.15
-17.59
-8.43
1.92
12.08
20.89
27.59
31.99
34.24
34.75
33.82
31.69
28.43
24.19
19.24
14.11
9.43
5.66
3.00
1.30
0.28
-0.33
-0.60
-0.45
0.13
0.94
1.50
1.19
-0.50
-3.70
-8.09
-13.04
-17.78
-21.82
-24.88
-27.04
-28.59
-29.87
-31.25
-33.17
-35.99
-39.77
-44.22
-48.44
-51.17
-51.23
-47.92
-41.43
-32.79
-23.51
-14.96
-7.94
-2.49
2.00
6.29
10.91
15.91
20.76
24.78
27.29
28.09
27.50
26.18
24.80
23.77
23.05
22.26
21.02
19.17
16.99
15.02
13.74
13.29
13.43
13.67
13.59
13.04
12.11
10.99
9.79
8.49
6.91
4.89
2.45
-0.30
-3.15
-5.89
-8.39
-10.50
-12.05
-12.72
-12.11
-9.95
-6.13
-0.79
5.64
12.54
19.33
25.52
30.88
35.23
38.47
40.48
41.18
40.70
39.46
38.07
37.16
36.96
37.24
37.30
36.41
34.08
30.35
25.65
20.57
15.62
10.99
6.76
2.95
-0.40
-3.28
-5.78
-8.10
-10.45
-12.85
-15.12
-16.99
-18.44
-19.65
-21.10
-23.14
-25.69
-28.19
-29.57
-28.93
-25.77
-20.40
-13.72
-6.94
-1.09
3.30
6.23
8.11
9.47
10.69
11.80
12.55
12.65
12.01
10.97
10.11
10.14
11.38
13.59
16.00
17.61
17.61
15.72
12.17
7.38
1.80
-4.27
-10.66
-17.18
-23.46
-29.06
-33.56
-36.90
-39.38
-41.56
-43.77
-45.96
-47.51
-47.48
-45.16
-40.54
-34.36
-27.99
-22.78
-19.53
-18.07
-17.37
-16.07
-13.18
-8.45
-2.50
3.63
8.92
12.85
15.53
17.40
18.95
20.30
21.27
21.56
20.93
19.47
17.48
15.33
13.21
11.09
8.67
5.72
2.10
-2.06
-6.43
-10.57
-14.20
-17.42
-20.67
-24.44
-28.97
-33.84
-38.03
-40.31
-39.70
-36.01
-29.89
-22.53
-15.22
-8.94
-4.16
-0.80
1.50
3.24
4.69
6.02
7.12
7.79
7.96
7.80
7.67
7.82
8.18
8.31
7.70
6.09
3.76
1.45
-0.07
-0.41
0.19
1.12
1.55
1.06
-0.36
-2.41
-4.63
-6.79
-8.96
-11.50
-14.85
-19.33
-24.94
-31.22
-37.27
-41.84
-43.95
-43.01
-39.13
-33.02
-25.71
-18.05
-10.60
-3.53
3.14
9.27
14.62
18.92
21.98
23.82
24.76
25.15
25.27
25.38
25.50
25.66
25.86
26.13
26.54
27.15
28.00
29.02
30.03
30.67
30.56
29.37
26.99
23.60
19.66
15.78
12.59
10.62
10.05
10.66
11.80
12.58
12.14
10.00
6.20
1.45
-3.27
-6.96
-8.96
-9.13
-7.75
-5.31
-2.26
1.19
5.06
9.43
14.28
19.35
24.15
28.17
31.12
32.96
33.87
34.15
34.03
33.59
32.88
31.92
30.85
29.77
28.74
27.64
26.26
24.36
21.73
18.43
14.64
10.63
6.67
3.02
-0.25
-3.14
-5.76
-8.23
-10.69
-13.30
-16.12
-19.21
-22.44
-25.53
-28.02
-29.42
-29.29
-27.55
-24.54
-20.83
-17.03
-13.55
-10.38
-7.29
-4.00
-0.45
3.05
6.03
8.09
9.12
9.34
9.17
9.04
9.26
9.78
10.40
10.83
10.86
10.31
9.10
7.20
4.54
1.27
-2.44
-6.23
-9.85
-13.14
-16.20
-19.24
-22.46
-25.93
-29.56
-33.09
-36.17
-38.42
-39.45
-38.87
-36.46
-32.33
-27.02
-21.36
-16.22
-12.15
-9.25
-7.20
-5.55
-3.99
-2.52
-1.36
-0.75
-0.70
-0.95
-1.01
-0.62
0.25
1.25
1.83
1.57
0.27
-1.87
-4.46
-7.09
-9.55
-11.79
-13.94
-16.10
-18.29
-20.38
-22.16
-23.47
-24.23
-24.61
-25.04
-26.01
-28.07
-31.55
-36.30
-41.76
-46.99
-50.95
-52.78
-52.05
-48.77
-43.36
-36.39
-28.47
-20.22
-12.13
-4.56
2.25
8.24
13.44
17.96
21.80
24.91
27.22
28.88
30.37
32.39
35.61
40.43
46.67
53.76
60.85
67.07
71.86
74.97
76.42
76.45
75.32
73.22
70.19
66.24
61.31
55.51
49.05
42.20
35.30
28.65
22.34
16.44
10.80
5.15
-0.77
-7.20
-14.06
-20.91
-26.99
-31.43
-33.53
-32.97
-29.94
-24.92
-18.74
-12.24
-6.18
-1.10
2.72
5.35
7.13
8.58
10.09
11.90
13.86
15.64
16.85
17.21
16.67
15.47
13.88
12.25
10.78
9.60
8.79
8.33
8.20
8.30
8.33
7.87
6.49
3.95
0.34
-3.91
-8.18
-11.89
-14.62
-16.23
-16.80
-16.57
-15.98
-15.51
-15.62
-16.67
-18.80
-21.88
-25.48
-28.94
-31.51
-32.49
-31.54
-28.64
-24.34
-19.52
-15.18
-12.08
-10.42
-9.77
-9.33
-8.28
-6.12
-2.85
1.14
5.40
9.50
13.17
16.31
18.86
20.81
22.27
23.33
24.12
24.58
24.50
23.46
21.05
17.18
12.17
6.68
1.45
-3.04
-6.57
-9.29
-11.36
-12.89
-13.98
-14.75
-15.48
-16.51
-18.06
-20.06
-22.01
-23.11
-22.65
-20.32
-16.40
-11.57
-6.76
-2.62
0.54
2.74
4.23
5.21
5.56
4.98
3.18
0.37
-2.78
-5.12
-5.60
-3.69
0.26
5.22
9.95
13.49
15.53
16.35
16.43
16.01
15.06
13.26
10.41
6.64
2.33
-2.00
-6.08
-9.95
-14.02
-18.64
-23.92
-29.37
-33.97
-36.59
-36.36
-32.95
-26.76
-18.73
-10.07
-1.98
4.69
9.53
12.46
13.79
13.95
13.45
12.69
12.01
11.56
11.33
11.32
11.44
11.60
11.79
12.06
12.52
13.28
14.22
15.08
15.42
14.82
13.04
10.07
6.18
1.90
-2.26
-5.84
-8.65
-10.78
-12.55
-14.36
-16.57
-19.33
-22.51
-25.68
-28.14
-29.15
-28.09
-24.76
-19.50
-13.04
-6.36
-0.28
4.75
8.66
11.62
13.79
15.26
16.05
16.15
15.61
14.44
12.67
10.42
7.92
5.49
3.48
2.02
0.99
0.03
-1.15
-2.52
-3.83
-4.71
-5.01
-4.91
-4.76
-4.81
-5.07
-5.32
-5.33
-5.07
-4.77
-4.89
-5.90
-8.05
-11.47
-15.90
-20.86
-25.60
-29.17
-30.72
-29.68
-26.03
-20.39
-13.66
-6.81
-0.51
4.96
9.63
13.66
17.22
20.36
23.01
24.98
26.09
26.22
25.45
24.02
22.22
20.33
18.54
16.90
15.42
14.25
13.51
13.17
13.04
12.62
11.36
8.92
5.40
1.34
-2.64
-6.03
-8.74
-11.06
-13.35
-15.85
-18.56
-21.32
-24.00
-26.62
-29.28
-32.00
-34.39
-35.80
-35.38
-32.59
-27.52
-20.94
-13.99
-7.64
-2.29
2.35
6.87
11.81
17.19
22.50
27.00
30.10
31.52
31.38
29.95
27.51
24.21
20.17
15.64
11.01
6.80
3.53
1.58
1.04
1.75
3.23
4.87
5.98
6.19
5.35
3.77
1.97
0.51
-0.29
-0.41
-0.22
-0.30
-1.20
-3.34
-6.72
-10.94
-15.21
-18.54
-19.99
-19.11
-16.10
-11.77
-7.29
-3.62
-1.25
0.02
0.79
1.69
3.03
4.74
6.52
8.01
9.00
9.54
9.71
9.69
9.48
9.18
8.80
8.40
8.04
7.68
7.18
6.33
4.87
2.55
-0.69
-4.75
-9.23
-13.68
-17.63
-20.87
-23.48
-25.65
-27.63
-29.47
-30.90
-31.48
-30.72
-28.26
-24.02
-18.17
-11.03
-3.08
5.07
12.66
18.93
23.23
25.23
25.17
23.73
21.67
19.55
17.59
15.67
13.68
11.67
9.98
9.00
8.81
9.13
9.34
8.90
7.52
5.32
2.74
0.21
-1.98
-3.77
-5.19
-6.33
-7.27
-8.11
-8.99
-10.07
-11.59
-13.71
-16.58
-20.07
-23.61
-26.29
-27.05
-25.08
-20.16
-12.98
-4.77
3.10
9.69
14.76
18.60
21.74
24.37
26.31
27.04
26.10
23.38
19.16
14.19
9.34
5.31
2.22
-0.34
-3.14
-6.76
-11.29
-16.08
-20.14
-22.70
-23.48
-23.05
-22.44
-22.63
-24.23
-27.30
-31.38
-35.73
-39.39
-41.25
-40.13
-35.21
-26.59
-15.45
-3.91
5.74
11.90
14.38
14.20
13.04
12.23
12.25
12.75
13.07
12.92
12.52
12.47
13.14
14.37
15.62
16.36
16.41
16.09
16.08
16.79
18.33
20.37
22.11
22.88
22.16
19.89
16.30
11.94
7.55
3.80
1.10
-0.65
-2.02
-3.97
-7.43
-12.89
-20.21
-28.52
-36.45
-42.51
-45.59
-45.16
-41.55
-35.80
-29.27
-23.16
-18.09
-13.98
-10.19
-6.10
-1.36
3.65
8.15
11.32
12.67
12.31
10.80
9.14
8.40
9.50
12.85
18.20
24.57
30.49
34.48
35.63
33.86
29.99
25.31
21.07
18.10
16.63
16.26
16.30
16.03
14.93
12.79
9.78
6.24
2.52
-1.16
-4.84
-8.77
-13.23
-18.35
-23.94
-29.43
-33.95
-36.55
-36.49
-33.54
-28.07
-21.00
-13.54
-6.76
-1.27
2.84
5.91
8.35
10.43
12.10
13.15
13.42
13.04
12.42
12.15
12.62
13.93
15.71
17.49
18.89
19.96
21.03
22.64
24.87
27.42
29.53
30.34
29.47
27.06
23.76
20.28
16.95
13.78
10.70
7.98
6.12
5.43
5.47
4.92
2.04
-4.31
-13.80
-24.56
-33.80
-39.21
-39.84
-36.36
-30.53
-24.18
-18.44
-13.66
-9.73
-6.41
-3.63
-1.40
0.13
0.95
1.06
0.53
-0.46
-1.86
-3.62
-5.66
-7.87
-9.84
-11.04
-10.90
-9.13
-6.00
-2.36
0.58
1.71
0.54
-2.54
-6.40
-9.57
-10.88
-9.97
-7.50
-4.89
-3.76
-5.19
-9.27
-15.12
-21.28
-26.38
-29.46
-30.27
-29.03
-26.10
-21.86
-16.73
-11.26
-6.12
-1.91
0.85
2.08
2.04
1.36
0.77
0.87
2.09
4.40
7.36
10.26
12.33
13.13
12.66
11.42
10.04
9.02
8.46
8.03
7.26
5.75
3.49
0.74
-2.03
-4.39
-6.05
-6.94
-7.14
-6.81
-6.25
-5.81
-5.93
-7.03
-9.22
-12.17
-15.15
-17.19
-17.46
-15.55
-11.72
-6.68
-1.36
3.50
7.52
10.58
12.80
14.24
14.93
14.89
14.32
13.67
13.55
14.47
16.61
19.70
23.12
26.12
28.12
28.83
28.33
26.99
25.35
23.84
22.75
22.03
21.31
20.00
17.56
13.78
8.78
3.20
-2.20
-6.74
-10.13
-12.55
-14.51
-16.61
-19.32
-22.79
-26.80
-30.85
-34.25
-36.29
-36.35
-34.10
-29.54
-23.06
-15.45
-7.55
-0.18
6.16
11.35
15.52
19.00
22.08
24.98
27.73
30.24
32.25
33.50
33.84
33.32
32.17
30.79
29.50
28.52
27.92
27.60
27.41
27.08
26.35
24.91
22.48
18.96
14.41
9.13
3.49
-2.14
-7.44
-12.24
-16.43
-20.04
-23.25
-26.43
-29.94
-33.95
-38.19
-41.92
-44.09
-43.79
-40.58
-34.78
-27.29
-19.18
-11.36
-4.22
2.13
7.72
12.44
16.03
18.19
18.79
18.05
16.45
14.59
12.95
11.70
10.82
10.09
9.38
8.69
8.10
7.64
7.18
6.52
5.41
3.75
1.55
-1.06
-3.99
-7.25
-10.91
-14.98
-19.29
-23.65
-27.95
-32.30
-36.91
-41.86
-46.82
-50.99
-53.33
-52.98
-49.61
-43.69
-36.31
-28.83
-22.55
-18.58
-17.67
-20.08
-25.09
-30.73
-33.94
-31.32
-20.42
-1.03
24.35
51.22
74.63
91.17
99.92
102.50
101.80
100.46
99.94
100.47
101.62
102.68
102.74
100.33
93.53
80.65
61.28
37.02
11.44
-11.28
-28.12
-38.44
-44.13
-48.13
-52.70
-58.28
-63.49
-66.24
-65.10
-60.25
-53.17
-45.87
-39.58
-34.50
-29.81
-24.55
-18.44
-12.11
-6.79
-3.50
-2.53
-3.35
-4.90
-6.21
-6.77
-6.66
-6.17
-5.59
-4.98
-4.19
-2.88
-0.71
2.68
7.45
13.34
19.69
25.50
29.95
32.50
33.05
31.74
28.75
24.04
17.47
9.06
-0.94
-11.76
-22.37
-31.51
-38.06
-41.19
-40.58
-36.47
-29.75
-21.81
-14.18
-8.10
-4.14
-2.15
-1.38
-0.87
0.04
1.62
3.75
6.10
8.49
10.95
13.71
16.79
19.83
22.21
23.29
22.77
20.97
18.67
16.78
16.03
16.58
18.01
19.52
20.25
19.61
17.40
13.73
8.81
2.96
-3.53
-10.23
-16.55
-21.98
-26.29
-29.89
-33.66
-38.54
-45.00
-52.58
-60.00
-65.55
-67.92
-66.40
-61.13
-52.90
-42.75
-31.74
-20.83
-10.85
-2.35
4.27
8.88
11.64
12.86
12.99
12.40
11.27
9.45
6.56
2.26
-3.02
-7.98
-10.55
-8.89
-2.33
7.93
19.15
28.29
33.26
33.81
31.18
27.18
23.16
19.38
15.43
10.93
6.13
1.94
-0.58
-1.08
-0.15
1.05
1.51
1.09
0.72
1.86
5.54
11.76
19.28
26.21
30.84
32.27
30.73
27.19
23.00
19.20
16.46
14.89
14.30
14.27
14.34
14.21
13.78
13.00
11.89
10.39
8.40
5.91
3.07
0.19
-2.28
-3.89
-4.42
-3.87
-2.61
-1.21
-0.37
-0.76
-2.79
-6.48
-11.52
-17.27
-22.94
-27.76
-30.95
-31.86
-30.15
-25.93
-19.81
-12.77
-5.80
0.45
5.76
10.33
14.44
18.02
20.70
21.86
21.04
18.30
14.32
10.18
6.92
5.24
5.13
6.04
7.01
7.07
5.51
2.10
-2.91
-8.79
-14.57
-19.29
-22.21
-23.05
-22.00
-19.64
-16.74
-14.21
-12.76
-12.77
-14.24
-16.64
-19.08
-20.58
-20.31
-17.96
-13.79
-8.45
-2.80
2.46
6.94
10.61
13.64
16.31
18.75
20.88
22.48
23.28
23.12
22.00
20.19
18.07
16.01
14.22
12.65
11.06
9.06
6.36
2.98
-0.64
-3.87
-6.06
-6.95
-6.77
-6.23
-6.28
-7.73
-11.01
-16.07
-22.26
-28.57
-33.87
-36.98
-37.17
-34.19
-28.30
-20.17
-10.76
-1.04
8.11
16.03
22.19
26.33
28.42
28.73
27.69
25.77
23.39
20.89
18.59
16.75
15.67
15.51
16.15
17.22
18.13
18.31
17.32
15.02
11.57
7.15
2.06
-3.47
-9.22
-14.96
-20.44
-25.48
-29.88
-33.40
-35.82
-36.92
-36.58
-34.79
-31.81
-27.99
-23.80
-19.47
-15.06
-10.49
-5.70
-0.79
3.92
7.98
10.98
12.78
13.48
13.44
13.10
12.71
12.37
12.02
11.73
11.61
11.93
12.77
14.01
15.29
16.11
16.11
15.25
13.77
12.14
10.68
9.51
8.44
7.04
4.84
1.49
-3.05
-8.31
-13.44
-17.42
-19.31
-18.61
-15.44
-10.51
-4.96
-0.10
2.96
3.77
2.65
0.64
-0.91
-0.95
0.82
3.95
7.53
10.81
13.58
16.23
19.34
23.16
27.34
31.09
33.55
34.24
33.22
31.08
28.58
26.34
24.57
23.09
21.55
19.47
16.53
12.65
7.83
2.06
-4.67
-12.26
-20.28
-27.86
-33.94
-37.78
-39.12
-38.41
-36.46
-33.99
-31.26
-28.17
-24.56
-20.47
-16.28
-12.30
-8.60
-5.00
-1.37
2.20
5.18
6.96
7.22
6.25
4.80
3.73
3.65
4.72
6.82
9.75
13.42
17.53
21.52
24.39
25.07
22.89
18.01
11.37
4.38
-1.53
-5.51
-7.28
-7.09
-5.51
-3.28
-1.22
-0.19
-0.87
-3.57
-7.93
-13.00
-17.41
-19.86
-19.39
-15.82
-9.64
-1.98
5.86
12.63
17.55
20.38
21.18
20.30
17.96
14.51
10.37
6.18
2.81
1.02
1.01
2.37
4.18
5.46
5.60
4.65
3.15
1.68
0.48
-0.63
-1.96
-3.63
-5.33
-6.52
-6.78
-6.26
-5.72
-6.26
-8.71
-13.16
-18.82
-24.33
-28.18
-29.30
-27.37
-22.70
-16.22
-9.02
-1.99
4.24
9.39
13.48
16.62
18.97
20.71
22.17
23.59
25.23
27.11
28.88
30.01
29.97
28.48
25.76
22.45
19.41
17.41
16.72
17.08
17.69
17.48
15.48
11.28
5.18
-1.86
-8.59
-14.02
-17.67
-19.71
-20.78
-21.64
-22.84
-24.62
-26.99
-29.66
-32.13
-33.70
-33.55
-31.03
-26.04
-19.05
-11.01
-2.98
4.32
10.56
15.70
19.74
22.48
23.69
23.27
21.46
18.83
16.16
13.95
12.31
10.93
9.24
6.77
3.37
-0.68
-4.68
-7.88
-9.80
-10.36
-9.86
-8.88
-7.94
-7.40
-7.33
-7.71
-8.47
-9.55
-10.95
-12.57
-14.37
-16.34
-18.54
-21.02
-23.60
-25.82
-26.95
-26.33
-23.72
-19.41
-14.05
-8.47
-3.31
1.17
4.96
8.16
10.92
13.23
15.15
16.73
18.03
19.02
19.68
19.98
20.02
20.01
20.17
20.52
20.75
20.34
18.79
15.97
12.18
8.02
4.17
1.04
-1.34
-3.22
-5.01
-7.11
-9.72
-12.93
-16.64
-20.67
-24.88
-29.24
-33.72
-38.34
-42.89
-47.00
-50.11
-51.61
-51.09
-48.34
-43.36
-36.22
-27.19
-16.78
-5.80
4.76
14.04
21.44
26.88
30.64
33.31
35.49
37.81
40.71
44.37
48.52
52.32
54.55
53.99
50.05
43.20
34.84
26.78
20.41
16.17
13.40
10.90
7.51
2.71
-3.29
-9.66
-15.44
-19.98
-23.02
-24.77
-25.74
-26.53
-27.78
-29.86
-32.77
-35.93
-38.37
-38.88
-36.68
-31.66
-24.41
-16.14
-8.01
-0.96
4.59
8.49
10.73
11.46
10.86
9.38
7.51
5.79
4.49
3.74
3.42
3.35
3.38
3.39
3.39
3.22
2.81
2.11
1.26
0.53
0.09
-0.01
-0.08
-0.56
-1.97
-4.35
-7.35
-10.35
-12.78
-14.44
-15.59
-16.83
-18.56
-20.71
-22.71
-23.65
-22.91
-20.42
-16.70
-12.58
-8.71
-5.26
-2.02
1.32
4.89
8.38
11.26
13.02
13.42
12.65
11.22
9.72
8.56
7.81
7.30
6.92
6.77
7.07
8.14
10.00
12.24
14.17
15.01
14.29
11.99
8.47
4.19
-0.60
-5.82
-11.61
-17.99
-24.65
-30.91
-35.69
-37.87
-36.71
-32.21
-25.33
-17.71
-11.06
-6.52
-4.22
-3.26
-2.34
-0.30
3.22
7.76
12.27
15.74
17.56
17.74
16.84
15.63
14.77
14.47
14.51
14.41
13.77
12.53
10.90
9.28
7.86
6.49
4.85
2.61
-0.41
-4.08
-8.19
-12.55
-17.02
-21.42
-25.54
-29.33
-32.86
-36.53
-40.88
-46.18
-52.20
-58.04
-62.55
-64.70
-63.77
-59.33
-50.99
-38.47
-21.96
-2.60
17.38
35.27
48.80
57.16
61.18
62.69
63.40
63.92
63.50
60.91
55.52
48.15
40.90
36.11
35.04
37.17
40.55
42.72
42.11
38.65
33.51
28.18
23.48
19.17
14.40
8.48
1.49
-5.72
-12.07
-16.97
-20.51
-23.30
-26.05
-29.21
-32.82
-36.65
-40.33
-43.27
-44.79
-44.14
-40.91
-35.24
-27.96
-20.31
-13.54
-8.55
-5.63
-4.57
-4.75
-5.24
-5.08
-3.41
0.27
5.84
12.54
19.29
25.02
29.10
31.45
32.36
32.26
31.43
30.13
28.60
27.26
26.37
25.91
25.52
24.44
21.97
17.72
11.96
5.43
-0.80
-5.85
-9.35
-11.45
-12.82
-14.38
-16.92
-20.66
-25.40
-30.37
-34.74
-37.75
-38.93
-38.15
-35.47
-31.14
-25.53
-19.16
-12.70
-6.69
-1.52
2.88
6.84
10.81
15.05
19.48
23.67
27.09
29.28
29.88
28.87
26.50
23.31
20.04
17.46
16.09
16.09
17.10
18.45
19.37
19.21
17.69
14.79
10.72
5.82
0.55
-4.58
-9.12
-12.64
-15.03
-16.58
-17.79
-19.25
-21.40
-24.09
-26.75
-28.49
-28.44
-26.24
-22.04
-16.47
-10.35
-4.50
0.71
5.09
8.67
11.56
13.81
15.48
16.67
17.40
17.64
17.29
16.26
14.65
12.81
11.12
9.90
9.31
9.24
9.62
10.38
11.40
12.47
13.18
12.95
11.32
8.17
3.83
-0.96
-5.50
-9.40
-12.82
-16.22
-20.16
-24.85
-30.00
-34.81
-38.21
-39.25
-37.40
-32.77
-26.06
-18.26
-10.25
-2.64
4.31
10.53
15.98
20.45
23.72
25.56
26.00
25.28
23.88
22.31
20.99
20.12
19.58
19.03
18.06
16.38
13.95
11.05
8.19
5.76
3.97
2.68
1.44
-0.38
-3.23
-7.32
-12.46
-18.24
-24.09
-29.46
-33.97
-37.45
-39.86
-41.22
-41.56
-40.78
-38.69
-35.15
-29.99
-23.33
-15.47
-6.93
1.59
9.38
15.90
20.93
24.51
26.99
28.73
30.00
30.99
31.67
31.95
31.87
31.56
31.19
30.87
30.58
30.10
29.12
27.27
24.39
20.47
15.80
10.68
5.48
0.32
-4.83
-10.15
-15.87
-22.13
-28.95
-36.18
-43.42
-49.82
-54.29
-55.58
-52.79
-45.83
-35.56
-23.58
-11.70
-1.31
7.02
13.38
18.20
21.81
24.30
25.60
25.67
24.71
23.09
21.12
19.02
16.82
14.61
12.53
10.82
9.67
9.13
8.98
8.87
8.34
7.11
5.07
2.29
-0.94
-4.30
-7.33
-9.63
-10.90
-11.04
-10.32
-9.25
-8.47
-8.52
-9.76
-12.18
-15.46
-19.06
-22.26
-24.33
-24.59
-22.47
-17.80
-10.86
-2.50
6.15
13.92
20.05
24.35
27.17
29.24
31.31
33.79
36.55
38.98
40.16
39.30
35.99
30.47
23.37
15.50
7.70
0.56
-5.56
-10.41
-13.77
-15.58
-16.04
-15.73
-15.23
-14.84
-14.49
-13.74
-12.16
-9.78
-7.05
-4.73
-3.45
-3.40
-4.38
-6.01
-8.02
-10.43
-13.37
-16.88
-20.58
-23.84
-25.79
-25.76
-23.48
-19.08
-13.16
-6.64
-0.45
4.69
8.48
11.02
12.78
14.20
15.59
16.92
17.96
18.55
18.68
18.54
18.39
18.30
18.08
17.39
15.92
13.67
11.03
8.57
6.74
5.62
4.90
3.96
2.34
-0.13
-3.19
-6.29
-8.93
-10.81
-12.01
-12.88
-13.99
-15.76
-18.48
-22.15
-26.52
-31.02
-34.74
-36.65
-35.82
-31.72
-24.64
-15.56
-5.96
2.75
9.61
14.40
17.36
19.07
19.93
20.20
19.96
19.31
18.48
17.87
17.86
18.50
19.60
20.66
21.16
20.71
19.27
17.12
14.65
12.25
10.01
7.80
5.22
1.89
-2.30
-7.15
-12.14
-16.63
-20.02
-22.02
-22.68
-22.40
-21.86
-21.69
-22.45
-24.19
-26.46
-28.40
-28.98
-27.45
-23.69
-18.33
-12.42
-7.21
-3.58
-1.77
-1.34
-1.38
-0.97
0.48
2.95
6.03
9.08
11.65
13.72
15.45
17.07
18.61
19.80
20.32
19.91
18.64
16.83
14.83
12.87
11.01
9.12
7.09
4.91
2.73
0.78
-0.79
-1.90
-2.65
-3.28
-4.07
-5.21
-6.81
-8.92
-11.52
-14.67
-18.38
-22.51
-26.53
-29.60
-30.86
-29.60
-25.79
-20.00
-13.24
-6.51
-0.44
4.84
9.57
14.02
18.25
21.93
24.63
26.03
26.17
25.33
23.94
22.34
20.61
18.83
17.05
15.44
14.29
13.72
13.65
13.68
13.41
12.58
11.23
9.63
8.12
6.96
6.14
5.48
4.75
3.77
2.40
0.64
-1.55
-4.13
-7.04
-10.25
-13.70
-17.39
-21.22
-25.15
-28.81
-31.75
-33.35
-33.09
-30.82
-26.67
-21.17
-15.09
-9.25
-4.18
-0.18
2.78
4.91
6.34
7.13
7.20
6.54
5.32
3.97
3.01
2.92
3.89
5.70
8.01
10.28
12.16
13.36
13.89
13.80
13.27
12.63
11.99
11.40
10.66
9.47
7.55
4.77
1.31
-2.47
-6.12
-9.42
-12.31
-15.05
-17.98
-21.42
-25.45
-29.70
-33.53
-36.04
-36.46
-34.37
-29.91
-23.72
-16.65
-9.58
-3.10
2.43
6.90
10.31
12.69
14.07
14.54
14.24
13.40
12.20
10.80
9.33
7.91
6.69
5.83
5.52
5.90
6.97
8.63
10.58
12.43
13.78
14.32
13.83
12.39
10.16
7.42
4.37
1.09
-2.43
-6.43
-11.02
-16.29
-21.85
-26.93
-30.55
-31.73
-30.03
-25.73
-19.74
-13.24
-7.33
-2.57
0.93
3.35
4.83
5.47
5.30
4.40
3.18
2.17
1.90
2.62
4.16
6.10
7.80
8.80
8.90
8.18
6.81
4.98
2.86
0.48
-2.08
-4.67
-7.07
-8.99
-10.32
-11.16
-11.87
-12.87
-14.59
-17.14
-20.38
-23.89
-27.04
-29.14
-29.61
-28.07
-24.39
-18.90
-12.25
-5.28
1.18
6.55
10.64
13.54
15.56
16.93
17.87
18.48
18.74
18.54
17.82
16.65
15.20
13.80
12.77
12.28
12.34
12.70
12.96
12.80
12.03
10.59
8.62
6.32
3.86
1.38
-1.06
-3.53
-6.11
-8.92
-12.04
-15.57
-19.53
-23.79
-27.98
-31.53
-33.70
-33.80
-31.47
-26.88
-20.78
-14.30
-8.53
-4.22
-1.47
0.13
1.39
3.01
5.30
8.19
11.19
13.89
16.07
17.80
19.31
20.70
21.86
22.48
22.33
21.51
20.46
19.70
19.63
20.16
20.77
20.82
19.80
17.63
14.59
11.08
7.37
3.50
-0.66
-5.26
-10.31
-15.68
-21.08
-26.17
-30.49
-33.51
-34.66
-33.41
-29.48
-23.02
-14.64
-5.22
4.24
13.01
20.61
26.86
31.64
34.76
35.97
35.10
32.35
28.29
23.85
19.90
17.00
15.06
13.78
12.81
12.07
11.72
11.83
12.21
12.34
11.56
9.47
6.21
2.42
-1.13
-3.80
-5.43
-6.38
-7.43
-9.52
-13.32
-19.00
-26.15
-34.01
-41.68
-48.57
-54.46
-59.34
-63.25
-65.96
-67.15
-66.54
-64.07
-59.77
-53.71
-45.80
-36.00
-24.47
-11.90
0.66
11.92
20.91
27.27
31.11
32.90
33.22
32.55
31.41
30.28
29.59
29.65
30.47
31.66
32.62
32.71
31.44
28.53
24.16
18.78
13.13
8.01
4.00
1.26
-0.53
-2.06
-4.21
-7.56
-12.30
-18.03
-23.84
-28.66
-31.42
-31.41
-28.46
-22.98
-15.77
-7.83
-0.05
6.96
12.96
18.03
22.28
25.80
28.51
30.26
30.89
30.38
28.84
26.42
23.36
19.96
16.54
13.45
11.00
9.31
8.22
7.41
6.43
4.97
2.93
0.46
-2.18
-4.75
-7.16
-9.48
-11.85
-14.40
-17.27
-20.48
-24.05
-27.81
-31.41
-34.24
-35.66
-35.03
-32.12
-27.09
-20.53
-13.16
-5.61
1.63
8.29
14.19
19.24
23.41
26.79
29.45
31.39
32.48
32.39
30.91
28.00
24.08
19.76
15.82
12.78
10.77
9.61
8.91
8.28
7.37
6.01
4.09
1.76
-0.66
-2.77
-4.27
-5.07
-5.53
-6.31
-8.15
-11.60
-16.85
-23.54
-30.86
-37.63
-42.58
-44.59
-43.07
-38.10
-30.39
-21.12
-11.48
-2.54
5.13
11.33
16.23
20.14
23.42
26.34
28.96
31.18
32.76
33.49
33.29
32.31
30.94
29.59
28.59
28.14
28.19
28.58
29.05
29.43
29.53
29.34
28.81
27.74
25.90
23.08
19.23
14.57
9.57
4.62
0.01
-4.26
-8.38
-12.59
-17.06
-21.86
-26.94
-32.21
-37.51
-42.47
-46.49
-48.85
-48.80
-45.95
-40.42
-32.81
-24.02
-15.06
-6.77
0.41
6.27
10.96
14.61
17.40
19.37
20.50
20.93
20.94
21.04
21.57
22.79
24.56
26.52
28.19
29.27
29.70
29.57
29.04
28.13
26.87
25.17
22.96
20.23
16.97
13.15
8.89
4.42
-0.01
-4.03
-7.38
-9.87
-11.48
-12.32
-12.59
-12.74
-13.30
-14.79
-17.59
-21.61
-26.28
-30.61
-33.41
-33.75
-31.27
-26.20
-19.34
-11.72
-4.25
2.47
8.23
13.05
17.03
20.19
22.49
23.77
23.97
23.11
21.36
19.02
16.42
13.88
11.58
9.70
8.33
7.53
7.34
7.71
8.31
8.69
8.31
6.75
4.01
0.42
-3.37
-6.73
-9.21
-10.69
-11.41
-11.77
-12.33
-13.58
-15.92
-19.43
-23.84
-28.36
-31.94
-33.47
-32.20
-28.00
-21.32
-13.03
-4.09
4.59
12.47
19.19
24.63
28.79
31.71
33.42
33.99
33.48
32.00
29.77
27.08
24.26
21.49
18.83
16.12
13.23
10.12
6.96
4.09
1.72
-0.12
-1.68
-3.36
-5.52
-8.24
-11.26
-14.08
-16.23
-17.44
-17.85
-17.93
-18.26
-19.34
-21.36
-24.21
-27.45
-30.43
-32.38
-32.60
-30.60
-26.37
-20.30
-13.26
-6.26
-0.16
4.60
8.02
10.40
12.06
13.21
13.95
14.41
14.76
15.21
15.92
16.89
17.96
18.98
19.90
20.74
21.58
22.40
23.03
23.25
22.89
21.89
20.33
18.24
15.63
12.55
9.09
5.47
1.86
-1.70
-5.37
-9.45
-14.26
-19.94
-26.41
-33.30
-40.07
-45.92
-49.99
-51.38
-49.56
-44.54
-37.05
-28.21
-19.23
-10.97
-3.72
2.66
8.35
13.38
17.47
20.22
21.37
21.03
19.64
17.88
16.32
15.34
14.95
15.04
15.48
16.25
17.43
19.04
20.85
22.36
23.00
22.34
20.37
17.48
14.20
10.99
7.91
4.80
1.34
-2.57
-6.75
-10.86
-14.61
-17.95
-21.08
-24.35
-28.01
-31.95
-35.59
-38.13
-38.76
-37.00
-33.02
-27.43
-21.11
-14.83
-8.92
-3.29
2.38
8.34
14.53
20.54
25.81
29.79
32.20
33.14
32.91
31.96
30.64
29.18
27.60
25.90
24.03
22.06
20.11
18.22
16.43
14.65
12.75
10.63
8.27
5.70
2.97
0.07
-3.06
-6.48
-10.19
-14.04
-17.88
-21.55
-25.06
-28.50
-31.97
-35.42
-38.54
-40.73
-41.38
-40.05
-36.70
-31.79
-26.11
-20.46
-15.44
-11.15
-7.35
-3.59
0.50
4.82
8.98
12.49
14.97
16.49
17.41
18.13
18.85
19.45
19.58
18.83
17.06
14.38
11.23
8.15
5.57
3.74
2.61
1.98
1.51
1.05
0.50
-0.09
-0.66
-1.31
-2.30
-3.97
-6.45
-9.47
-12.43
-14.57
-15.17
-13.85
-10.67
-6.07
-0.65
4.91
10.10
14.53
17.98
20.36
21.60
21.74
20.86
19.16
16.87
14.39
12.11
10.48
9.76
9.97
10.60
10.82
9.59
6.19
0.61
-6.46
-13.90
-20.66
-26.16
-30.27
-32.95
-34.11
-33.50
-31.04
-27.25
-23.33
-20.67
-20.27
-22.19
-25.47
-28.65
-30.32
-29.69
-26.71
-21.84
-15.66
-8.80
-1.73
5.11
11.37
16.77
21.11
24.20
25.93
26.28
25.26
23.03
19.92
16.25
12.36
8.48
4.80
1.43
-1.50
-3.83
-5.33
-5.74
-5.01
-3.39
-1.48
-0.10
0.05
-1.31
-3.91
-7.05
-10.00
-12.37
-14.29
-16.19
-18.45
-20.98
-23.34
-25.04
-25.88
-26.00
-25.64
-24.77
-22.90
-19.39
-13.93
-6.89
0.65
7.37
12.44
15.92
18.51
21.17
24.43
28.15
31.64
34.08
34.90
33.81
30.85
26.26
20.46
13.92
7.33
1.48
-2.99
-5.83
-7.40
-8.57
-10.28
-13.02
-16.61
-20.21
-22.87
-23.98
-23.53
-22.16
-20.81
-20.32
-21.23
-23.81
-28.01
-33.42
-39.20
-44.08
-46.51
-45.34
-40.40
-32.77
-24.37
-17.19
-12.38
-9.84
-8.37
-6.45
-3.02
1.93
7.66
13.04
17.16
19.57
20.29
19.68
18.23
16.57
15.38
15.25
16.51
19.06
22.28
25.36
27.62
28.71
28.63
27.58
25.79
23.31
20.16
16.43
12.33
8.12
4.03
0.30
-2.95
-5.57
-7.54
-9.00
-10.21
-11.59
-13.49
-15.94
-18.56
-20.68
-21.42
-20.22
-16.87
-11.75
-5.63
0.56
6.15
10.74
14.27
16.87
18.71
19.93
20.66
20.96
20.86
20.51
20.03
19.65
19.61
19.95
20.57
21.20
21.54
21.38
20.73
19.69
18.42
16.88
15.00
12.70
10.03
7.25
4.65
2.44
0.67
-0.75
-1.86
-2.93
-4.28
-6.50
-10.13
-15.58
-22.79
-31.13
-39.36
-45.97
-49.50
-48.95
-44.01
-35.33
-24.24
-12.59
-2.20
5.62
10.33
12.06
11.52
9.54
7.00
4.63
2.98
2.53
3.41
5.36
7.77
9.94
11.15
11.02
9.60
7.21
4.40
1.67
-0.64
-2.48
-4.04
-5.70
-7.72
-10.18
-12.88
-15.52
-17.86
-20.04
-22.45
-25.44
-29.16
-33.14
-36.48
-38.12
-37.30
-33.86
-28.21
-20.99
-12.97
-4.93
2.40
8.19
11.74
12.83
11.85
9.72
7.65
6.47
6.49
7.40
8.63
9.65
10.20
10.12
9.36
7.88
5.69
3.18
0.99
-0.14
0.12
1.59
3.45
4.67
4.49
2.53
-0.93
-5.30
-9.91
-14.30
-18.17
-21.42
-24.08
-26.10
-27.46
-27.93
-27.26
-25.17
-21.40
-15.98
-9.15
-1.43
6.66
14.59
21.98
28.48
33.78
37.57
39.70
40.27
39.65
38.51
37.49
37.10
37.51
38.61
40.02
41.33
42.05
41.80
40.53
38.43
35.99
33.79
32.05
30.34
27.50
22.20
13.64
2.16
-10.60
-22.30
-30.92
-35.43
-36.22
-34.67
-32.45
-31.03
-31.29
-33.79
-38.67
-45.37
-52.46
-57.69
-58.71
-54.04
-44.04
-30.84
-17.67
-7.34
-1.27
0.91
0.64
-0.47
-1.39
-1.72
-1.32
0.09
2.91
7.25
12.61
17.81
21.49
22.81
21.87
19.75
17.81
17.07
17.69
18.96
19.87
19.65
18.14
15.75
13.19
11.07
9.68
8.89
8.34
7.64
6.55
4.93
2.75
-0.09
-3.62
-7.95
-13.00
-18.44
-23.66
-27.99
-30.76
-31.56
-30.29
-27.11
-22.47
-16.97
-11.19
-5.60
-0.45
4.17
8.24
11.57
13.81
14.59
13.83
11.98
9.97
8.87
9.35
11.40
14.31
17.07
18.98
19.83
20.05
20.18
20.52
20.95
20.95
19.97
17.86
14.86
11.60
8.75
6.68
5.33
4.25
2.67
-0.05
-4.23
-9.75
-16.07
-22.30
-27.39
-30.38
-30.60
-27.82
-22.45
-15.35
-7.67
-0.48
5.49
9.99
13.02
14.73
15.08
13.90
11.12
6.96
2.09
-2.40
-5.56
-6.82
-6.21
-4.29
-1.85
0.32
1.60
1.58
0.02
-2.97
-6.76
-10.18
-11.91
-11.02
-7.61
-2.83
1.48
3.75
3.18
0.13
-4.45
-9.62
-14.95
-20.45
-26.20
-31.77
-36.14
-37.90
-36.09
-30.60
-22.49
-13.38
-4.98
1.73
6.69
10.48
13.95
17.65
21.45
24.73
26.80
27.28
26.34
24.64
22.86
21.45
20.38
19.27
17.73
15.67
13.36
11.30
9.86
9.08
8.69
8.23
7.38
6.02
4.10
1.62
-1.53
-5.55
-10.62
-16.68
-23.24
-29.53
-34.53
-37.27
-37.18
-34.09
-28.47
-21.25
-13.61
-6.66
-1.13
2.98
6.25
9.48
13.35
17.96
22.76
26.88
29.52
30.30
29.55
27.90
26.07
24.51
23.29
22.17
20.89
19.29
17.42
15.43
13.44
11.39
9.19
6.61
3.57
0.21
-3.24
-6.47
-9.29
-11.66
-13.87
-16.19
-18.96
-22.21
-25.65
-28.81
-31.02
-31.68
-30.44
-27.25
-22.40
-16.48
-10.13
-3.92
1.64
6.34
10.12
13.11
15.47
17.33
18.73
19.62
19.96
19.76
19.31
19.01
19.25
20.27
21.96
23.84
25.42
26.34
26.44
25.89
24.91
23.57
21.81
19.46
16.31
12.39
7.95
3.41
-0.70
-4.02
-6.53
-8.45
-10.27
-12.47
-15.37
-18.96
-22.91
-26.82
-30.24
-32.75
-33.99
-33.53
-31.10
-26.58
-20.32
-13.02
-5.60
1.03
6.24
9.95
12.52
14.47
16.28
18.13
19.82
20.97
21.17
20.29
18.55
16.40
14.29
12.52
11.21
10.27
9.58
9.11
8.77
8.37
7.51
5.76
2.82
-1.22
-5.89
-10.41
-14.06
-16.37
-17.40
-17.66
-18.00
-19.15
-21.47
-24.78
-28.28
-30.90
-31.49
-29.32
-24.30
-16.98
-8.41
0.18
7.65
13.34
17.13
19.28
20.29
20.69
20.83
20.82
20.67
20.39
19.99
19.54
18.98
18.17
16.99
15.40
13.61
12.05
11.15
11.05
11.52
11.97
11.75
10.46
8.13
5.09
1.83
-1.21
-3.99
-6.74
-9.87
-13.76
-18.49
-23.77
-28.89
-32.97
-35.18
-35.03
-32.40
-27.55
-21.10
-13.67
-6.02
1.24
7.47
12.20
15.19
16.56
16.67
16.03
15.17
14.44
14.05
13.98
14.05
14.07
13.81
13.15
12.11
10.96
10.02
9.58
9.62
9.83
9.66
8.62
6.44
3.25
-0.49
-4.28
-7.81
-10.96
-13.97
-17.20
-21.00
-25.46
-30.43
-35.36
-39.49
-41.93
-41.88
-38.97
-33.28
-25.52
-16.64
-7.70
0.51
7.49
13.08
17.25
20.04
21.57
21.97
21.54
20.65
19.65
18.73
17.98
17.40
17.03
17.04
17.56
18.60
19.99
21.45
22.55
22.97
22.48
20.90
18.06
13.83
8.27
1.86
-4.56
-9.91
-13.38
-14.66
-14.14
-12.72
-11.54
-11.52
-13.05
-15.98
-19.66
-23.18
-25.61
-26.22
-24.66
-21.07
-16.06
-10.46
-5.09
-0.46
3.32
6.47
9.16
11.52
13.44
14.71
15.31
15.38
15.24
15.19
15.27
15.30
14.99
14.28
13.46
13.08
13.53
14.76
16.21
16.96
16.24
13.82
10.08
5.79
1.70
-1.69
-4.37
-6.63
-8.83
-11.24
-13.94
-16.92
-20.17
-23.64
-27.12
-30.23
-32.30
-32.69
-31.03
-27.44
-22.52
-17.18
-12.23
-8.12
-4.80
-1.86
1.19
4.61
8.24
11.63
14.20
15.63
15.94
15.44
14.66
14.03
13.60
13.19
12.43
11.05
9.03
6.68
4.39
2.50
1.13
0.08
-0.92
-2.12
-3.62
-5.33
-7.14
-9.14
-11.56
-14.72
-18.72
-23.25
-27.53
-30.54
-31.41
-29.68
-25.51
-19.53
-12.54
-5.35
1.58
8.02
13.92
19.22
23.69
26.99
28.80
29.03
27.88
25.80
23.34
20.88
18.62
16.54
14.47
12.32
10.02
7.45
4.53
1.16
-2.60
-6.52
-10.26
-13.44
-15.91
-17.73
-19.14
-20.40
-21.78
-23.43
-25.35
-27.36
-29.00
-29.61
-28.50
-25.37
-20.44
-14.50
-8.64
-3.71
-0.05
2.55
4.58
6.48
8.37
10.15
11.59
12.55
13.00
13.01
12.75
12.38
12.09
12.04
12.27
12.64
12.80
12.44
11.30
9.34
6.75
3.72
0.47
-2.86
-6.16
-9.41
-12.54
-15.67
-18.97
-22.61
-26.61
-30.70
-34.26
-36.45
-36.54
-34.08
-29.20
-22.62
-15.37
-8.45
-2.54
2.15
5.73
8.51
10.82
12.81
14.53
15.98
17.14
18.04
18.76
19.31
19.70
19.87
19.76
19.28
18.41
17.10
15.38
13.31
10.98
8.41
5.65
2.68
-0.52
-3.91
-7.55
-11.41
-15.47
-19.76
-24.10
-28.17
-31.33
-32.83
-32.00
-28.61
-22.93
-15.73
-8.00
-0.64
5.81
11.22
15.68
19.31
22.10
23.84
24.38
23.75
22.25
20.36
18.53
17.00
15.79
14.75
13.66
12.40
10.89
9.24
7.44
5.53
3.57
1.65
-0.17
-1.95
-3.97
-6.57
-10.01
-14.29
-19.15
-24.11
-28.56
-31.94
-33.68
-33.26
-30.38
-25.05
-17.76
-9.49
-1.37
5.66
11.16
15.20
18.24
20.63
22.48
23.52
23.43
21.98
19.18
15.41
11.29
7.60
4.95
3.74
3.97
5.30
7.11
8.74
9.69
9.69
8.73
6.95
4.52
1.48
-2.02
-5.88
-9.94
-14.03
-18.05
-21.91
-25.49
-28.49
-30.41
-30.65
-28.65
-24.25
-17.79
-10.11
-2.33
4.57
10.07
14.17
17.22
19.67
21.78
23.49
24.65
25.06
24.74
23.86
22.72
21.56
20.43
19.19
17.72
15.84
13.61
11.31
9.25
7.68
6.66
6.04
5.50
4.66
3.25
1.17
-1.47
-4.61
-8.21
-12.29
-16.72
-21.13
-24.75
-26.66
-26.04
-22.62
-16.80
-9.59
-2.27
4.12
9.03
12.50
14.96
16.92
18.69
20.35
21.78
22.86
23.59
24.11
24.76
25.88
27.71
30.25
33.25
36.28
38.72
39.95
39.51
37.21
33.30
28.39
23.43
19.27
16.45
15.07
14.88
15.40
15.93
15.69
13.95
10.33
5.13
-0.40
-4.49
-5.39
-2.24
4.32
12.34
19.37
23.47
23.83
20.92
15.83
9.61
2.87
-4.28
-11.76
-19.09
-25.43
-29.95
-32.28
-32.91
-33.05
-33.98
-36.66
-41.12
-46.67
-52.44
-57.76
-62.65
-67.87
-74.39
-82.72
-92.28
-100.93
-105.47
-102.84
-91.63
-73.08
-51.07
-30.67
-15.96
-8.36
-6.27
-6.30
-5.09
-0.90
6.12
14.61
23.18
31.10
38.19
44.29
48.84
50.97
50.08
46.16
40.20
33.81
28.39
24.75
22.82
21.71
20.35
17.92
14.26
9.82
5.43
1.93
-0.08
-0.35
0.97
3.48
6.61
9.71
12.12
13.30
12.94
11.08
8.12
4.57
0.93
-2.58
-6.08
-9.95
-14.60
-20.08
-25.77
-30.46
-32.51
-30.56
-24.06
-13.78
-1.42
10.90
21.39
28.95
33.23
34.40
32.87
29.18
24.01
18.24
12.81
8.51
5.83
4.78
4.93
5.75
6.77
7.74
8.70
9.79
11.12
12.67
14.21
15.41
15.87
15.30
13.85
12.03
10.36
8.98
7.77
6.38
4.60
2.54
0.59
-1.02
-2.49
-4.41
-7.48
-11.98
-17.67
-23.84
-29.74
-34.78
-38.58
-40.70
-40.63
-37.92
-32.57
-25.47
-18.12
-11.90
-7.48
-4.44
-1.68
1.79
6.13
10.64
14.19
16.07
16.46
16.26
16.58
18.08
20.65
23.47
25.58
26.43
26.07
25.00
23.78
22.64
21.55
20.16
18.19
15.54
12.39
9.25
6.58
4.68
3.33
1.99
-0.15
-3.60
-8.32
-13.63
-18.54
-22.09
-23.96
-24.54
-24.80
-25.85
-28.43
-32.49
-37.29
-41.53
-43.82
-43.14
-39.20
-32.45
-23.89
-14.85
-6.51
0.33
5.41
9.02
11.75
14.21
16.75
19.32
21.51
22.82
22.95
21.93
20.17
18.17
16.40
15.14
14.40
14.05
13.86
13.61
13.03
11.96
10.33
8.21
5.73
3.09
0.40
-2.21
-4.59
-6.66
-8.36
-9.85
-11.46
-13.70
-16.99
-21.42
-26.53
-31.39
-34.80
-35.80
-33.97
-29.53
-23.19
-15.79
-8.11
-0.81
5.65
10.85
14.50
16.46
16.88
16.24
15.15
14.20
13.73
13.62
13.40
12.61
10.96
8.52
5.82
3.51
1.98
1.23
0.89
0.36
-0.81
-2.83
-5.47
-8.25
-10.54
-11.89
-12.07
-11.25
-9.96
-8.88
-8.59
-9.39
-11.20
-13.67
-16.22
-18.21
-19.04
-18.20
-15.45
-10.99
-5.39
0.54
5.84
9.91
12.49
13.64
13.56
12.64
11.02
8.85
6.30
3.57
0.94
-1.36
-3.20
-4.51
-5.15
-5.10
-4.29
-2.77
-0.74
1.39
3.09
3.88
3.53
2.11
-0.03
-2.37
-4.51
-6.25
-7.64
-9.01
-10.89
-13.71
-17.65
-22.39
-27.00
-30.13
-30.57
-27.63
-21.61
-13.77
-5.91
0.33
4.04
5.31
4.97
4.16
3.76
4.24
5.59
7.65
10.28
13.47
17.06
20.67
23.60
25.07
24.61
22.26
18.60
14.54
10.91
8.18
6.28
4.78
3.19
1.26
-1.05
-3.48
-5.83
-8.02
-10.11
-12.17
-14.34
-16.79
-19.70
-23.36
-27.95
-33.32
-38.83
-43.36
-45.67
-44.95
-41.08
-34.63
-26.60
-17.98
-9.51
-1.62
5.48
11.66
16.84
21.04
24.40
27.02
29.00
30.25
30.73
30.54
29.88
28.99
28.04
26.93
25.45
23.56
21.51
19.71
18.50
17.83
17.12
15.52
12.37
7.57
1.81
-3.81
-8.23
-11.02
-12.53
-13.77
-15.96
-19.94
-25.79
-32.77
-39.66
-45.08
-47.99
-47.90
-44.80
-39.16
-31.64
-23.07
-14.28
-6.21
0.46
5.33
8.54
10.66
12.46
14.52
16.96
19.36
21.07
21.57
20.81
19.22
17.36
15.60
13.76
11.34
7.98
3.90
-0.02
-2.59
-3.05
-1.52
0.93
2.92
3.42
2.34
0.47
-1.16
-1.95
-2.02
-2.13
-3.13
-5.45
-8.99
-13.16
-17.27
-20.80
-23.30
-24.45
-24.05
-21.98
-18.44
-13.90
-8.95
-4.19
0.04
3.66
6.65
9.07
10.80
11.79
12.07
11.98
11.99
12.62
14.22
16.68
19.53
22.03
23.53
23.61
22.31
19.95
17.02
13.87
10.59
7.05
3.13
-1.26
-5.90
-10.41
-14.47
-17.78
-20.31
-22.33
-24.15
-26.05
-28.01
-29.70
-30.53
-29.92
-27.49
-23.26
-17.64
-11.29
-4.89
1.03
6.17
10.49
14.06
17.04
19.47
21.37
22.67
23.29
23.19
22.39
21.05
19.43
17.88
16.63
15.84
15.41
15.05
14.35
13.04
10.98
8.30
5.35
2.49
-0.05
-2.27
-4.42
-6.86
-9.95
-13.95
-18.86
-24.36
-29.91
-34.73
-38.02
-39.16
-37.76
-33.90
-28.04
-20.96
-13.49
-6.36
0.04
5.57
10.32
14.39
17.75
20.33
22.11
23.21
24.03
25.05
26.68
28.93
31.46
33.60
34.69
34.46
33.08
31.08
29.15
27.76
27.02
26.66
26.08
24.63
21.69
16.81
9.96
1.49
-7.77
-16.73
-24.17
-29.46
-32.70
-34.88
-37.38
-41.20
-46.43
-52.04
-56.32
-57.66
-55.23
-49.10
-40.32
-30.30
-20.36
-11.49
-4.26
1.28
5.47
8.93
12.39
16.33
20.81
25.51
29.82
33.31
35.76
37.12
37.40
36.58
34.52
31.13
26.71
21.83
17.22
13.48
10.75
8.60
6.27
3.08
-1.12
-5.81
-10.10
-13.16
-14.62
-14.84
-14.68
-15.04
-16.55
-19.39
-23.25
-27.59
-31.84
-35.44
-37.94
-39.05
-38.62
-36.66
-33.24
-28.55
-22.88
-16.52
-9.78
-2.99
3.70
10.31
16.94
23.46
29.41
34.19
37.29
38.75
39.09
39.08
39.13
38.95
37.79
34.94
30.39
24.95
19.97
16.57
15.10
15.03
15.33
15.08
13.93
12.07
9.98
8.01
6.21
4.35
2.11
-0.69
-4.03
-7.74
-11.75
-16.12
-21.07
-26.76
-33.03
-39.15
-43.95
-46.14
-44.85
-40.05
-32.50
-23.52
-14.40
-6.03
1.36
7.89
13.78
19.06
23.55
26.98
29.13
29.96
29.62
28.43
26.77
24.99
23.43
22.31
21.66
21.38
21.18
20.66
19.30
16.76
12.99
8.23
3.22
-1.24
-4.42
-6.08
-6.41
-6.05
-5.70
-5.94
-7.03
-8.86
-11.02
-12.81
-13.39
-12.08
-8.66
-3.62
1.87
6.25
8.28
7.48
4.51
0.83
-1.93
-2.63
-0.97
2.48
6.64
10.58
13.67
15.66
16.66
16.71
15.79
13.95
11.46
8.82
6.66
5.44
5.20
5.57
5.81
5.23
3.34
0.10
-3.98
-8.10
-11.57
-14.14
-16.10
-18.27
-21.58
-26.54
-32.95
-39.94
-46.18
-50.28
-50.95
-47.09
-38.22
-24.71
-8.22
8.39
21.90
29.87
31.69
28.68
23.40
18.37
14.96
13.23
12.43
11.93
11.73
12.34
14.24
17.26
20.48
22.62
22.67
20.12
15.24
8.90
2.33
-3.20
-6.61
-7.27
-5.16
-0.98
4.07
8.44
10.65
9.71
5.27
-2.18
-11.59
-21.47
-30.26
-36.54
-39.41
-38.60
-34.46
-27.95
-20.38
-13.12
-7.08
-2.69
0.31
2.55
4.75
7.26
10.14
13.08
15.71
17.77
19.08
19.51
18.97
17.42
15.11
12.54
10.53
9.78
10.61
12.69
15.08
16.69
16.70
14.82
11.32
6.83
1.95
-2.93
-7.61
-12.05
-16.06
-19.46
-21.99
-23.59
-24.47
-25.17
-26.15
-27.57
-28.97
-29.48
-28.29
-25.03
-20.04
-14.29
-8.76
-4.13
-0.48
2.51
5.25
7.93
10.54
13.05
15.54
18.30
21.52
25.20
28.98
32.38
34.83
35.94
35.55
33.70
30.68
26.90
22.88
19.12
15.88
13.17
10.62
7.70
3.99
-0.64
-5.81
-10.86
-15.03
-17.91
-19.53
-20.35
-21.12
-22.39
-24.33
-26.60
-28.60
-29.71
-29.52
-27.78
-24.40
-19.35
-12.70
-4.71
4.01
12.62
20.25
26.29
30.56
33.38
35.27
36.85
38.45
40.02
41.14
41.13
39.32
35.30
29.27
21.92
14.24
7.02
0.52
-5.40
-11.02
-16.27
-20.62
-23.21
-23.54
-21.83
-19.18
-17.10
-16.90
-19.14
-23.41
-28.62
-33.46
-36.80
-37.97
-36.74
-33.30
-28.07
-21.69
-14.83
-8.04
-1.72
3.87
8.66
12.54
15.33
16.82
16.91
15.87
14.38
13.37
13.58
15.24
17.81
20.30
21.75
21.74
20.72
19.49
18.82
18.84
18.93
18.03
15.30
10.50
4.05
-3.18
-10.30
-16.59
-21.69
-25.55
-28.37
-30.43
-31.97
-33.00
-33.36
-32.79
-31.12
-28.39
-24.82
-20.63
-15.97
-10.75
-4.92
1.28
7.26
12.26
15.73
17.60
18.40
18.94
19.76
20.94
22.16
22.98
23.14
22.75
22.15
21.60
21.08
20.31
19.05
17.27
15.32
13.73
12.78
12.38
11.92
10.70
8.30
4.75
0.46
-4.01
-8.43
-12.79
-17.26
-22.08
-27.09
-31.87
-35.77
-38.13
-38.50
-36.74
-33.03
-27.81
-21.70
-15.26
-8.99
-3.11
2.29
7.12
11.26
14.40
16.28
16.83
16.33
15.41
14.77
14.92
15.94
17.40
18.59
18.92
18.12
16.36
14.07
11.77
9.95
8.78
8.24
8.09
8.00
7.63
6.76
5.31
3.29
0.78
-2.23
-5.62
-9.37
-13.33
-17.40
-21.65
-26.27
-31.29
-36.45
-40.99
-43.83
-43.93
-40.75
-34.58
-26.35
-17.30
-8.54
-0.69
6.05
11.78
16.55
20.40
23.34
25.42
26.85
27.94
28.99
30.06
31.04
31.55
31.18
29.68
27.01
23.51
19.59
15.70
11.99
8.45
4.87
1.13
-2.76
-6.57
-9.96
-12.56
-14.25
-15.07
-15.25
-15.20
-15.33
-16.00
-17.42
-19.47
-21.85
-24.07
-25.53
-25.62
-23.94
-20.41
-15.28
-9.23
-3.08
2.33
6.49
9.25
10.85
11.75
12.31
12.85
13.39
13.86
14.11
14.06
13.70
13.08
12.18
11.00
9.46
7.58
5.50
3.48
1.80
0.69
0.11
-0.15
-0.42
-0.94
-1.82
-2.94
-4.13
-5.40
-6.87
-8.92
-11.76
-15.32
-19.10
-22.31
-24.11
-23.87
-21.45
-17.14
-11.61
-5.71
-0.13
4.68
8.55
11.61
14.10
16.18
17.92
19.17
19.74
19.43
18.12
15.95
13.30
10.63
8.41
6.95
6.11
5.46
4.51
3.00
1.04
-0.84
-2.03
-2.15
-1.28
0.01
0.96
0.88
-0.78
-4.21
-9.28
-15.56
-22.31
-28.48
-33.00
-35.02
-34.15
-30.63
-25.16
-18.71
-12.12
-5.96
-0.41
4.50
8.85
12.49
15.11
16.36
16.08
14.40
11.78
8.91
6.24
4.08
2.45
1.20
0.26
-0.44
-1.01
-1.62
-2.53
-4.08
-6.34
-9.18
-12.24
-14.96
-16.81
-17.47
-17.03
-15.95
-14.99
-14.83
-15.92
-18.29
-21.46
-24.65
-26.95
-27.52
-25.86
-21.87
-15.90
-8.73
-1.41
5.17
10.35
14.03
16.61
18.72
20.76
22.99
25.24
27.14
28.41
28.86
28.52
27.63
26.45
25.16
23.93
22.84
21.92
21.13
20.36
19.42
18.14
16.31
13.84
10.78
7.36
3.88
0.59
-2.44
-5.34
-8.39
-11.92
-16.08
-20.73
-25.40
-29.34
-31.61
-31.55
-28.84
-23.73
-16.94
-9.47
-2.28
3.89
8.73
12.33
14.89
16.68
17.89
18.64
19.02
19.13
19.07
18.99
18.97
19.12
19.32
19.43
19.16
18.22
16.36
13.47
9.69
5.42
1.14
-2.69
-5.78
-8.13
-9.93
-11.54
-13.34
-15.69
-18.84
-22.81
-27.31
-31.75
-35.42
-37.54
-37.65
-35.72
-32.05
-27.26
-21.99
-16.88
-12.44
-9.08
-7.05
-6.41
-7.05
-8.65
-10.83
-13.23
-15.47
-17.24
-18.26
-18.29
-17.29
-15.34
-12.67
-9.56
-6.29
-3.06
0.05
3.03
5.93
8.79
11.56
14.10
16.07
17.12
17.07
15.87
13.78
11.30
9.02
7.58
7.47
9.00
12.29
17.02
22.65
28.39
33.53
37.62
40.65
42.84
44.45
45.61
46.16
45.78
44.22
41.47
37.78
33.64
29.58
26.04
23.28
21.25
19.66
18.04
15.94
13.05
9.46
5.58
1.92
-1.07
-3.18
-4.50
-5.39
-6.26
-7.59
-9.82
-13.15
-17.35
-21.70
-25.25
-27.07
-26.77
-24.75
-21.97
-19.51
-17.99
-17.36
-16.99
-16.26
-15.03
-13.76
-13.23
-13.96
-15.97
-18.66
-21.29
-23.40
-25.08
-26.73
-28.70
-30.94
-32.97
-34.29
-34.66
-34.42
-34.32
-35.00
-36.70
-38.95
-40.71
-40.84
-38.54
-33.67
-26.83
-19.02
-11.32
-4.41
1.51
6.73
11.75
17.00
22.62
28.40
33.80
38.26
41.39
43.09
43.45
42.67
40.87
38.08
34.41
30.25
26.17
22.82
20.66
19.70
19.46
19.29
18.54
16.92
14.57
11.82
8.96
6.03
2.88
-0.75
-4.93
-9.64
-14.68
-19.97
-25.52
-31.33
-37.22
-42.54
-46.11
-46.58
-43.06
-35.56
-25.25
-14.04
-3.85
4.10
9.57
13.20
15.97
18.65
21.49
24.35
26.83
28.70
29.85
30.23
29.84
28.60
26.42
23.38
19.83
16.27
13.38
11.56
10.88
10.98
11.22
10.91
9.60
7.12
3.64
-0.48
-4.85
-9.15
-13.21
-17.04
-20.74
-24.53
-28.56
-32.85
-37.05
-40.47
-42.27
-41.69
-38.40
-32.50
-24.60
-15.56
-6.23
2.66
10.56
17.13
22.13
25.46
27.23
27.78
27.66
27.41
27.41
27.68
27.83
27.32
25.66
22.77
19.06
15.23
11.91
9.48
7.70
6.03
3.81
0.60
-3.52
-8.14
-12.54
-16.12
-18.56
-19.93
-20.59
-21.06
-21.94
-23.63
-26.34
-29.83
-33.45
-36.21
-37.07
-35.31
-30.66
-23.52
-14.67
-5.09
4.31
12.83
19.99
25.50
29.26
31.36
31.99
31.47
30.14
28.33
26.27
24.13
22.12
20.45
19.31
18.87
19.21
20.26
21.68
23.09
23.96
23.86
22.56
20.12
16.89
13.31
9.88
6.89
4.43
2.28
0.17
-2.29
-5.47
-9.65
-14.91
-20.94
-26.95
-31.82
-34.41
-34.03
-30.75
-25.38
-19.01
-12.73
-7.05
-2.05
2.44
6.52
10.01
12.63
14.24
15.05
15.52
16.05
16.81
17.57
17.96
17.68
16.65
15.02
13.09
11.01
8.91
6.83
4.73
2.69
0.74
-1.21
-3.24
-5.53
-8.33
-11.87
-16.30
-21.72
-27.88
-34.19
-39.68
-43.23
-43.94
-41.35
-35.63
-27.55
-18.26
-8.89
-0.27
7.19
13.47
18.68
22.83
25.71
27.00
26.53
24.53
21.64
18.63
16.18
14.49
13.31
12.22
10.87
9.14
7.18
5.20
3.39
1.85
0.61
-0.29
-0.81
-0.93
-0.73
-0.43
-0.35
-0.83
-2.00
-3.72
-5.57
-6.96
-7.19
-5.89
-3.20
0.27
3.57
5.84
6.65
6.22
5.25
4.61
4.79
5.81
7.26
8.53
9.28
9.56
9.68
9.95
10.49
11.08
11.44
11.44
11.09
10.66
10.32
9.97
9.34
7.90
5.25
1.39
-3.18
-7.79
-11.70
-14.52
-16.37
-17.66
-18.92
-20.37
-21.79
-22.45
-21.59
-18.60
-13.59
-7.23
-0.57
5.34
9.83
12.77
14.41
15.11
15.10
14.48
13.21
11.38
9.24
7.25
5.83
5.18
5.15
5.37
5.44
5.15
4.46
3.50
2.21
0.32
-2.61
-6.81
-12.00
-17.33
-21.65
-23.99
-24.09
-22.52
-20.53
-19.48
-20.12
-22.42
-25.46
-27.95
-28.71
-26.96
-22.72
-16.51
-9.26
-1.94
4.56
9.69
13.23
15.18
15.86
15.65
14.91
13.94
12.86
11.63
10.19
8.47
6.43
4.07
1.56
-0.85
-2.79
-4.01
-4.39
-4.09
-3.49
-3.01
-2.97
-3.50
-4.49
-5.70
-6.95
-8.17
-9.35
-10.59
-11.89
-13.11
-14.00
-14.17
-13.26
-11.06
-7.57
-3.00
2.29
7.87
13.38
18.44
22.62
25.49
26.66
26.02
23.81
20.55
17.01
13.87
11.52
10.02
9.06
8.16
6.78
4.64
1.74
-1.54
-4.57
-6.76
-7.81
-7.87
-7.48
-7.25
-7.73
-9.11
-11.29
-13.91
-16.54
-18.66
-19.80
-19.57
-17.69
-14.18
-9.34
-3.75
1.83
6.65
10.26
12.49
13.53
13.81
13.75
13.48
12.79
11.23
8.55
4.89
0.89
-2.60
-5.04
-6.54
-7.68
-9.15
-11.23
-13.58
-15.54
-16.61
-16.84
-16.81
-17.33
-18.79
-21.09
-23.77
-26.33
-28.53
-30.43
-32.11
-33.40
-33.91
-33.11
-30.72
-26.79
-21.70
-15.95
-9.96
-4.00
1.58
6.46
10.28
12.72
13.85
14.05
13.87
13.77
13.94
14.25
14.43
14.28
13.90
13.43
13.00
12.47
11.59
10.22
8.46
6.62
5.04
3.80
2.65
1.07
-1.37
-4.77
-8.86
-13.08
-16.84
-19.61
-21.01
-20.81
-18.89
-15.46
-11.01
-6.29
-1.96
1.53
4.11
5.99
7.49
8.88
10.29
11.75
13.09
14.05
14.33
13.55
11.58
8.66
5.30
2.24
0.08
-1.01
-1.29
-1.24
-1.35
-1.87
-2.86
-4.33
-6.24
-8.61
-11.31
-14.14
-16.72
-18.83
-20.39
-21.53
-22.49
-23.37
-23.98
-23.89
-22.64
-19.99
-16.16
-11.55
-6.76
-2.25
1.87
5.59
8.90
11.70
13.67
14.46
14.05
12.68
10.87
9.14
7.86
7.04
6.54
6.09
5.56
4.86
4.08
3.27
2.51
1.82
1.06
0.00
-1.52
-3.68
-6.46
-9.73
-13.35
-17.05
-20.55
-23.41
-25.15
-25.25
-23.48
-20.08
-15.80
-11.62
-8.30
-6.09
-4.68
-3.39
-1.57
0.94
3.98
7.09
9.81
11.91
13.46
14.68
15.81
16.97
17.99
18.62
18.62
17.77
16.17
14.01
11.49
8.84
6.01
2.90
-0.62
-4.36
-8.03
-11.26
-13.85
-15.87
-17.63
-19.41
-21.29
-23.01
-24.11
-24.07
-22.60
-19.82
-16.17
-12.22
-8.48
-5.24
-2.52
-0.23
1.68
3.12
3.89
3.82
2.93
1.52
0.10
-0.72
-0.57
0.56
2.27
3.90
4.74
4.47
3.13
1.36
-0.17
-0.86
-0.65
-0.09
-0.05
-1.42
-4.69
-9.78
-15.91
-21.97
-26.72
-29.09
-28.49
-24.86
-18.74
-11.10
-3.11
4.13
9.78
13.62
15.90
17.27
18.48
20.00
21.88
23.76
25.10
25.47
24.82
23.43
21.66
19.85
17.99
16.02
13.85
11.41
8.81
6.15
3.43
0.53
-2.64
-5.98
-9.30
-12.29
-14.68
-16.42
-17.77
-19.11
-20.84
-23.11
-25.73
-28.01
-29.10
-28.10
-24.48
-18.34
-10.38
-1.73
6.41
13.20
18.37
22.17
25.10
27.53
29.53
30.95
31.53
31.20
30.01
28.15
25.80
23.09
19.98
16.47
12.64
8.60
4.54
0.72
-2.77
-5.87
-8.72
-11.42
-14.01
-16.36
-18.21
-19.43
-20.06
-20.49
-21.42
-23.36
-26.42
-30.01
-33.01
-34.14
-32.46
-27.69
-20.29
-11.28
-1.84
7.02
14.67
20.82
25.30
27.98
28.71
27.45
24.49
20.61
16.92
14.46
13.82
14.89
16.83
18.58
19.26
18.54
16.64
14.05
11.13
8.00
4.53
0.58
-3.88
-8.59
-13.24
-17.62
-21.70
-25.50
-29.01
-31.93
-33.81
-34.19
-32.76
-29.50
-24.74
-19.04
-13.02
-7.22
-1.93
2.72
6.83
10.54
13.94
17.03
19.59
21.49
22.57
22.90
22.67
22.10
21.42
20.70
19.90
18.87
17.43
15.45
12.89
9.88
6.62
3.30
-0.07
-3.58
-7.42
-11.67
-16.29
-21.11
-25.90
-30.40
-34.26
-37.05
-38.21
-37.21
-33.60
-27.36
-18.94
-9.21
0.63
9.41
16.24
20.80
23.38
24.75
25.69
26.70
27.72
28.25
27.78
26.22
23.94
21.66
20.02
19.22
18.86
18.21
16.50
13.23
8.48
2.79
-3.00
-8.11
-12.12
-15.13
-17.77
-20.89
-25.14
-30.66
-37.07
-43.54
-49.17
-53.27
-55.30
-54.95
-52.04
-46.66
-39.28
-30.76
-22.18
-14.46
-7.86
-1.84
4.68
12.65
22.35
33.00
42.95
50.44
54.30
54.51
52.03
48.38
44.84
42.08
40.05
38.29
36.41
34.23
31.79
29.12
26.11
22.50
18.13
13.06
7.64
2.45
-2.02
-5.62
-8.53
-11.22
-14.18
-17.85
-22.35
-27.51
-32.69
-36.96
-39.27
-38.67
-34.74
-27.86
-19.16
-10.05
-1.91
4.65
9.71
13.95
18.04
22.22
26.08
28.77
29.58
28.29
25.39
21.85
18.56
16.01
14.13
12.52
10.80
8.91
7.09
5.78
5.14
4.83
4.11
2.11
-1.55
-6.30
-10.70
-12.95
-11.73
-6.91
0.17
7.26
12.07
13.27
10.88
6.12
0.67
-4.07
-7.26
-8.71
-8.41
-6.42
-2.80
2.10
7.58
12.51
15.87
17.14
16.43
14.54
12.45
10.95
10.18
9.77
9.21
8.22
6.99
6.06
6.05
7.23
9.37
11.86
14.02
15.33
15.60
14.84
13.20
10.86
7.96
4.57
0.84
-3.12
-7.12
-10.94
-14.37
-17.26
-19.55
-21.41
-23.06
-24.60
-25.81
-26.21
-25.10
-21.95
-16.74
-10.03
-2.89
3.65
8.85
12.64
15.38
17.68
20.01
22.37
24.46
25.68
25.57
24.01
21.27
17.92
14.55
11.60
9.23
7.40
6.01
5.01
4.32
3.84
3.35
2.58
1.31
-0.64
-3.10
-5.82
-8.43
-10.75
-12.90
-15.23
-18.19
-21.86
-26.04
-29.98
-32.76
-33.58
-32.03
-28.21
-22.58
-15.74
-8.31
-0.89
6.06
12.13
17.03
20.67
23.10
24.51
25.15
25.36
25.36
25.38
25.50
25.60
25.54
25.06
24.03
22.53
20.80
19.15
17.77
16.62
15.35
13.67
11.37
8.56
5.55
2.64
-0.04
-2.78
-6.07
-10.49
-16.35
-23.59
-31.71
-39.88
-47.07
-52.33
-54.94
-54.50
-51.07
-45.03
-37.03
-27.81
-18.07
-8.41
0.63
8.62
15.22
20.26
23.75
25.89
26.91
27.05
26.47
25.37
24.03
22.74
21.81
21.39
21.42
21.68
21.92
21.94
21.62
20.93
19.74
17.86
15.01
11.03
6.01
0.40
-5.21
-10.26
-14.47
-18.02
-21.41
-25.30
-30.14
-35.88
-41.94
-47.31
-50.86
-51.65
-49.23
-43.72
-35.73
-26.17
-15.98
-6.02
3.13
11.13
17.87
23.27
27.23
29.69
30.72
30.54
29.56
28.35
27.37
26.76
26.37
25.76
24.53
22.50
19.81
16.86
14.15
11.95
10.30
8.93
7.37
5.20
2.25
-1.34
-5.08
-8.46
-11.10
-12.99
-14.36
-15.65
-17.22
-19.25
-21.67
-24.26
-26.66
-28.46
-29.17
-28.35
-25.67
-21.07
-14.91
-7.93
-0.95
5.23
10.08
13.42
15.34
16.13
16.25
16.03
15.76
15.59
15.53
15.54
15.61
15.72
15.80
15.75
15.46
14.79
13.74
12.47
11.21
10.18
9.41
8.72
7.65
5.81
2.94
-0.83
-5.14
-9.49
-13.58
-17.36
-20.99
-24.65
-28.22
-31.11
-32.50
-31.66
-28.28
-22.69
-15.81
-8.70
-2.25
3.02
7.05
10.07
12.22
13.60
14.22
14.13
13.54
12.77
12.23
12.20
12.71
13.58
14.45
15.01
15.07
14.67
14.05
13.48
13.01
12.47
11.50
9.78
7.23
4.03
0.59
-2.75
-5.80
-8.66
-11.56
-14.85
-18.80
-23.57
-29.18
-35.25
-41.18
-46.16
-49.34
-49.99
-47.75
-42.66
-35.15
-25.92
-15.83
-5.77
3.47
11.31
17.50
21.99
24.95
26.59
27.12
26.77
25.77
24.36
22.77
21.21
19.81
18.62
17.65
16.80
16.01
15.16
14.15
12.92
11.39
9.47
7.05
4.06
0.51
-3.40
-7.24
-10.52
-12.85
-14.12
-14.66
-15.07
-16.00
-17.97
-21.10
-25.16
-29.58
-33.56
-36.22
-36.78
-34.89
-30.59
-24.54
-17.69
-10.98
-5.01
0.07
4.38
8.16
11.49
14.28
16.39
17.79
18.64
19.30
20.14
21.36
22.92
24.50
25.77
26.47
26.52
26.16
25.69
25.34
25.06
24.56
23.38
21.18
17.92
13.85
9.54
5.56
2.24
-0.42
-2.62
-4.72
-6.97
-9.54
-12.52
-16.02
-20.08
-24.49
-28.71
-31.85
-33.07
-31.85
-28.28
-23.00
-16.97
-11.01
-5.64
-0.95
3.12
6.54
9.20
10.82
11.20
10.44
8.92
7.17
5.72
4.90
4.77
5.22
6.06
7.08
8.15
9.13
9.88
10.24
9.98
8.96
7.11
4.53
1.46
-1.78
-4.87
-7.64
-10.25
-13.08
-16.63
-21.10
-26.27
-31.38
-35.28
-36.89
-35.52
-31.12
-24.40
-16.48
-8.54
-1.41
4.56
9.45
13.55
17.10
20.15
22.60
24.30
25.24
25.61
25.70
25.74
25.75
25.54
24.91
23.79
22.34
20.93
19.96
19.56
19.51
19.25
18.13
15.74
12.10
7.64
3.09
-0.99
-4.40
-7.30
-10.11
-13.29
-17.19
-21.90
-27.30
-33.08
-38.70
-43.41
-46.37
-46.79
-44.34
-39.20
-32.12
-24.15
-16.34
-9.40
-3.64
0.91
4.48
7.31
9.63
11.51
12.78
13.19
12.52
10.81
8.47
6.13
4.23
2.70
1.01
-1.37
-4.31
-6.79
-7.35
-4.81
0.92
8.64
16.30
22.03
24.87
25.05
23.55
21.38
19.18
17.04
14.71
11.93
8.67
5.01
1.08
-2.89
-6.72
-10.14
-12.91
-14.73
-15.32
-14.38
-11.69
-7.18
-1.07
5.92
12.79
18.49
22.21
23.72
23.29
21.57
19.19
16.71
14.45
12.73
11.79
11.87
13.07
15.19
17.72
19.96
21.32
21.40
20.14
17.72
14.35
10.29
5.81
1.28
-2.92
-6.48
-9.31
-11.54
-13.40
-15.14
-16.75
-18.15
-19.29
-20.35
-21.73
-23.91
-27.06
-30.64
-33.38
-33.55
-29.93
-22.32
-12.00
-1.38
7.06
11.71
12.56
10.73
7.56
3.76
-0.70
-5.96
-11.46
-15.75
-17.41
-16.24
-13.69
-12.36
-14.37
-20.07
-27.70
-34.59
-38.87
-40.41
-40.47
-40.28
-39.80
-37.53
-31.69
-21.89
-9.76
1.46
8.55
9.77
5.65
-1.51
-8.85
-14.20
-16.75
-16.91
-15.57
-13.30
-9.91
-4.62
3.33
13.97
26.20
38.01
47.31
52.69
53.91
51.80
47.67
42.85
38.29
34.55
32.11
31.34
32.35
34.93
38.37
41.76
44.30
45.52
45.48
44.56
43.25
41.85
40.36
38.58
36.08
32.46
27.42
21.19
14.50
8.41
4.11
2.27
2.57
3.38
1.95
-4.67
-18.29
-38.39
-61.94
-84.26
-100.80
-108.95
-108.86
-103.07
-95.05
-87.61
-82.17
-78.83
-76.91
-75.40
-72.98
-68.03
-58.86
-44.45
-25.49
-4.56
14.70
29.17
37.39
40.11
39.52
37.91
36.57
35.64
34.48
32.51
29.73
26.61
23.77
21.53
19.80
18.18
16.13
13.25
9.48
4.93
-0.21
-5.81
-11.86
-18.35
-25.13
-31.51
-36.28
-38.04
-35.78
-29.48
-20.26
-9.97
-0.50
6.96
12.19
15.75
18.54
21.32
24.28
27.21
29.54
30.71
30.28
28.09
24.35
19.66
14.91
11.03
8.76
8.22
9.01
10.36
11.38
11.43
10.27
8.20
5.85
3.99
3.15
3.44
4.55
5.80
6.44
5.87
3.80
0.23
-4.68
-10.72
-17.65
-25.07
-32.37
-38.62
-42.76
-43.89
-41.67
-36.39
-29.07
-20.94
-13.11
-6.13
0.15
6.16
12.30
18.49
24.23
28.79
31.70
33.01
33.19
32.86
32.44
32.00
31.33
30.25
28.72
26.98
25.28
23.72
22.10
19.97
16.91
12.80
7.88
2.69
-2.26
-6.57
-10.20
-13.33
-16.30
-19.34
-22.55
-25.87
-29.02
-31.65
-33.21
-33.20
-31.27
-27.36
-21.81
-15.32
-8.69
-2.67
2.40
6.48
9.78
12.56
14.93
16.92
18.44
19.47
20.03
20.26
20.34
20.45
20.70
21.19
21.82
22.37
22.48
21.78
19.98
16.92
12.67
7.44
1.63
-4.22
-9.59
-14.04
-17.44
-20.02
-22.29
-24.89
-28.20
-32.39
-37.14
-41.88
-45.81
-48.08
-47.86
-44.55
-38.04
-28.90
-18.30
-7.69
1.60
8.78
13.80
17.18
19.67
21.83
23.83
25.45
26.27
25.95
24.40
21.91
19.01
16.50
14.98
14.78
15.79
17.52
19.35
20.62
20.88
19.96
17.84
14.67
10.59
5.90
0.98
-3.72
-7.75
-10.88
-13.38
-15.83
-19.05
-23.67
-29.61
-36.05
-41.54
-44.66
-44.61
-41.54
-36.28
-29.86
-22.94
-15.66
-7.86
0.52
9.10
17.19
24.01
29.12
32.44
34.20
34.63
33.74
31.56
28.26
24.44
21.02
18.93
18.81
20.76
24.37
28.75
32.84
35.62
36.29
34.60
30.76
25.46
19.70
14.54
10.60
8.03
6.43
5.09
3.21
0.22
-4.19
-10.11
-17.26
-25.24
-33.32
-40.65
-46.48
-50.36
-52.33
-52.86
-52.46
-51.15
-48.30
-42.66
-33.09
-19.46
-3.15
13.13
26.37
34.57
37.60
37.09
35.54
34.89
35.59
36.83
37.21
35.78
32.60
28.58
24.67
21.27
18.01
14.09
8.99
2.82
-3.56
-9.05
-12.78
-14.63
-15.21
-15.67
-17.27
-20.61
-25.44
-30.77
-35.22
-37.70
-37.98
-36.53
-34.20
-31.85
-29.69
-27.41
-24.50
-20.50
-15.51
-10.06
-4.73
0.07
4.23
7.91
11.31
14.41
17.10
19.27
20.96
22.35
23.78
25.42
27.32
29.26
30.96
32.18
32.74
32.46
30.98
27.73
22.23
14.44
5.11
-4.45
-12.61
-18.16
-20.73
-20.91
-20.03
-19.48
-20.18
-22.42
-25.86
-29.68
-32.91
-34.61
-34.07
-31.00
-25.60
-18.63
-11.07
-3.84
2.53
7.93
12.63
16.86
20.83
24.55
27.89
30.80
33.14
34.72
35.30
34.60
32.60
29.51
25.93
22.72
20.54
19.37
18.46
16.78
13.44
8.30
1.88
-4.94
-11.03
-15.75
-19.20
-22.03
-24.94
-28.37
-32.33
-36.52
-40.63
-43.68
-44.77
-43.29
-39.26
-33.14
-25.76
-18.02
-10.55
-3.41
4.99
16.91
34.24
57.25
83.99
110.84
133.91
150.68
155.59
146.94
126.92
100.87
74.67
51.98
33.53
18.41
5.66
-5.10
-13.16
-18.34
-21.45
-24.03
-27.51
-32.39
-38.08
-43.34
-47.26
-49.12
-49.09
-48.17
-47.60
-48.20
-49.99
-52.22
-53.91
-54.49
-53.70
-51.91
-49.90
-48.65
-49.01
-51.38
-55.28
-59.27
-61.00
-57.84
-48.08
-31.99
-12.09
7.64
23.36
32.81
35.98
34.62
31.06
27.12
23.56
20.35
17.27
14.42
12.23
11.10
11.07
11.59
11.86
11.11
9.05
6.01
2.78
0.31
-0.81
-0.63
0.29
0.75
-0.07
-2.27
-5.05
-7.17
-7.41
-5.18
-0.82
4.48
9.21
12.10
12.52
10.64
7.27
3.48
0.19
-2.18
-3.75
-4.95
-5.98
-6.85
-7.11
-6.32
-4.33
-1.68
0.85
2.33
2.27
0.97
-0.90
-2.65
-4.02
-5.03
-5.66
-5.61
-4.37
-1.86
1.38
4.07
5.19
4.33
2.28
0.37
-0.56
-0.79
-1.55
-3.77
-6.97
-9.03
-7.43
-0.88
9.42
20.10
27.34
29.00
25.63
19.78
14.71
12.36
12.71
14.26
15.31
15.04
13.94
13.24
13.94
16.21
19.38
22.10
23.23
22.21
19.10
14.60
9.61
4.72
0.15
-4.32
-9.07
-14.22
-19.61
-24.68
-28.82
-31.59
-32.93
-33.09
-32.44
-31.17
-29.16
-26.12
-21.94
-16.88
-11.59
-7.02
-3.94
-2.54
-2.50
-3.16
-3.84
-4.22
-4.29
-4.27
-4.38
-4.65
-4.98
-5.29
-5.55
-5.81
-6.12
-6.46
-6.72
-6.75
-6.55
-6.28
-6.36
-7.24
-9.18
-12.21
-16.00
-19.98
-23.34
-25.35
-25.50
-23.73
-20.51
-16.79
-13.69
-12.14
-12.31
-13.66
-15.00
-15.14
-13.21
-9.01
-2.87
4.79
12.99
20.81
27.47
32.44
35.50
36.80
36.75
35.98
35.01
34.07
33.16
32.08
30.61
28.69
26.47
24.14
21.86
19.55
17.06
14.41
11.85
9.66
7.99
6.57
4.79
2.00
-2.12
-7.28
-12.62
-17.06
-19.97
-21.38
-22.12
-23.30
-25.85
-30.07
-35.48
-40.97
-45.18
-46.94
-45.58
-41.12
-34.22
-25.91
-17.26
-9.15
-1.97
4.20
9.57
14.43
18.95
23.17
27.10
30.45
32.84
33.86
33.25
31.24
28.42
25.63
23.55
22.44
22.03
21.75
21.17
20.15
18.83
17.27
15.37
12.84
9.48
5.45
1.31
-2.26
-4.77
-6.31
-7.58
-9.64
-13.42
-19.30
-26.92
-34.96
-41.64
-45.18
-44.34
-39.04
-30.33
-20.13
-10.58
-3.31
1.07
2.98
3.58
4.13
5.48
7.81
10.74
13.61
15.90
17.37
18.07
18.20
18.05
17.75
17.39
16.94
16.30
15.25
13.55
10.96
7.53
3.63
-0.22
-3.47
-5.85
-7.43
-8.55
-9.66
-11.15
-13.32
-16.34
-20.31
-25.01
-29.78
-33.53
-35.04
-33.33
-28.17
-20.22
-10.86
-1.67
6.18
12.08
16.08
18.59
20.02
20.56
20.26
19.11
17.23
14.95
12.68
10.81
9.50
8.60
7.79
6.72
5.36
3.89
2.58
1.52
0.47
-0.89
-2.85
-5.28
-7.72
-9.54
-10.38
-10.43
-10.45
-11.48
-14.43
-19.90
-27.72
-36.91
-45.83
-52.43
-54.91
-52.41
-45.27
-34.94
-23.36
-12.08
-1.69
8.02
17.60
27.08
35.73
42.33
45.86
46.06
43.73
40.23
36.87
34.49
33.10
32.17
30.89
28.61
25.09
20.48
15.21
9.69
4.41
-0.29
-4.11
-6.84
-8.36
-8.68
-8.02
-6.74
-5.38
-4.40
-4.14
-4.84
-6.72
-10.07
-15.12
-21.87
-29.81
-37.95
-44.94
-49.52
-50.78
-48.41
-42.77
-34.66
-25.11
-15.03
-5.09
4.35
13.09
20.85
27.23
31.75
34.14
34.53
33.50
31.90
30.46
29.51
28.89
28.19
27.04
25.41
23.70
22.47
22.17
22.83
24.04
24.96
24.52
21.74
16.10
7.68
-2.82
-14.15
-24.87
-33.55
-39.15
-41.19
-39.96
-36.60
-32.73
-29.98
-29.40
-30.98
-33.64
-35.65
-35.38
-31.90
-25.38
-16.90
-7.96
0.05
6.34
10.71
13.50
15.30
16.68
17.95
19.13
20.02
20.50
20.61
20.58
20.73
21.21
21.90
22.50
22.69
22.27
21.31
19.96
18.33
16.42
14.06
11.06
7.29
2.90
-1.73
-6.12
-9.82
-12.79
-15.33
-18.03
-21.52
-26.06
-31.30
-36.38
-40.13
-41.46
-39.72
-34.82
-27.32
-18.19
-8.60
0.36
7.81
13.24
16.57
18.03
18.07
17.23
15.85
14.16
12.36
10.64
9.31
8.74
9.16
10.54
12.52
14.51
15.88
16.10
14.78
11.86
7.51
2.16
-3.49
-8.62
-12.58
-15.12
-16.53
-17.48
-18.73
-20.88
-24.29
-29.00
-34.75
-40.84
-46.07
-48.95
-48.16
-43.14
-34.56
-24.14
-13.93
-5.52
0.43
4.32
6.90
8.80
10.26
11.20
11.54
11.56
11.82
12.98
15.39
18.88
22.87
26.54
29.19
30.42
30.34
29.38
28.18
27.14
26.34
25.42
23.85
21.18
17.24
12.11
5.97
-1.03
-8.86
-17.53
-26.98
-36.96
-47.07
-56.78
-65.51
-72.68
-77.70
-79.93
-78.81
-74.05
-65.60
-53.92
-39.96
-24.92
-10.15
3.20
14.47
23.49
30.49
35.87
39.91
42.70
44.21
44.47
43.56
41.74
39.25
36.28
32.96
29.49
25.89
22.06
17.56
11.95
5.04
-2.76
-10.59
-17.39
-22.45
-25.62
-27.24
-27.85
-27.94
-27.86
-28.01
-28.88
-30.79
-33.52
-36.12
-37.02
-34.78
-28.71
-19.29
-7.95
3.70
14.50
23.92
31.98
38.80
44.30
48.15
50.02
49.67
47.16
42.89
37.44
31.52
25.76
20.55
16.02
12.08
8.49
5.19
2.36
0.41
-0.27
0.39
1.98
3.60
4.25
3.27
0.61
-3.26
-7.57
-11.67
-15.26
-18.49
-21.80
-25.63
-30.05
-34.66
-38.60
-40.80
-40.32
-36.79
-30.53
-22.56
-14.16
-6.40
0.28
6.09
11.54
17.00
22.33
26.89
29.91
30.88
29.90
27.63
25.05
23.05
21.98
21.68
21.65
21.33
20.34
18.56
16.05
12.88
9.21
5.10
0.70
-3.84
-8.28
-12.49
-16.55
-20.76
-25.57
-31.32
-37.93
-44.66
-50.04
-52.31
-50.10
-43.08
-32.34
-19.91
-7.98
1.98
9.77
16.13
21.96
27.61
32.55
35.74
36.22
33.84
29.41
24.40
20.37
18.34
18.53
20.23
22.06
22.36
19.79
13.70
4.52
-6.27
-16.52
-23.85
-26.57
-24.18
-17.63
-8.90
-0.37
6.03
9.30
9.47
7.41
4.47
2.20
1.94
4.25
8.26
11.88
12.51
8.36
-0.28
-11.13
-21.03
-27.58
-30.25
-30.00
-28.01
-24.39
-18.05
-7.77
6.30
21.88
35.36
43.64
45.77
43.45
40.00
38.35
39.66
42.90
45.67
45.59
41.48
33.81
24.23
14.81
7.06
1.48
-2.43
-5.81
-9.76
-15.30
-23.03
-33.16
-45.25
-58.04
-69.58
-77.65
-80.43
-77.14
-68.29
-55.49
-40.78
-25.99
-12.38
-0.56
9.31
17.27
23.42
27.89
30.90
32.73
33.70
34.09
34.17
34.09
33.79
33.15
32.04
30.49
28.71
26.95
25.34
23.76
21.81
19.03
15.10
10.00
4.06
-2.18
-8.12
-13.23
-17.21
-20.13
-22.41
-24.85
-28.33
-33.46
-40.13
-47.44
-53.78
-57.34
-56.77
-51.66
-42.65
-31.12
-18.63
-6.40
4.98
15.42
25.01
33.75
41.31
47.17
50.91
52.46
52.25
51.17
50.10
49.69
50.04
50.73
51.00
50.18
47.98
44.56
40.55
36.65
33.34
30.61
28.11
25.25
21.43
16.43
10.38
3.86
-2.33
-7.34
-10.64
-12.18
-12.53
-12.77
-14.02
-17.22
-22.50
-29.08
-35.42
-39.56
-39.74
-34.93
-25.50
-13.52
-2.44
3.86
2.50
-7.22
-23.11
-40.77
-54.92
-61.40
-58.37
-46.82
-29.76
-10.83
6.83
21.49
32.56
40.23
44.60
45.54
42.72
36.23
27.00
16.76
7.73
1.47
-1.56
-2.18
-1.88
-1.94
-2.87
-4.29
-5.45
-5.98
-6.33
-7.60
-10.94
-16.86
-24.82
-33.32
-40.31
-43.92
-43.01
-37.52
-28.37
-17.18
-5.73
4.56
12.89
19.19
23.90
27.60
30.61
32.94
34.36
34.67
33.96
32.51
30.81
29.14
27.56
25.87
23.90
21.66
19.47
17.71
16.50
15.53
14.15
11.66
7.72
2.57
-3.09
-8.35
-12.60
-15.84
-18.56
-21.57
-25.55
-30.76
-36.87
-43.11
-48.41
-51.64
-51.93
-48.86
-42.58
-33.87
-23.92
-14.03
-5.24
1.87
7.33
11.54
15.07
18.37
21.68
25.04
28.32
31.30
33.74
35.45
36.24
35.98
34.67
32.43
29.62
26.73
24.20
22.28
20.91
19.57
17.72
14.88
10.94
6.12
0.95
-4.13
-8.90
-13.34
-17.64
-21.96
-26.38
-31.00
-35.87
-40.93
-45.86
-49.83
-51.75
-50.55
-45.66
-37.40
-26.89
-15.64
-5.00
4.25
12.02
18.58
24.24
29.04
32.72
35.00
35.83
35.43
34.31
33.01
31.92
31.15
30.55
29.91
29.11
28.22
27.43
26.94
26.68
26.20
24.86
22.12
17.85
12.54
7.11
2.47
-0.89
-3.12
-5.00
-7.40
-10.91
-15.61
-21.08
-26.69
-31.98
-36.67
-40.69
-43.91
-45.96
-46.35
-44.58
-40.42
-34.05
-26.16
-17.55
-9.08
-1.37
5.26
10.69
14.86
17.74
19.47
20.18
20.35
20.62
21.51
23.09
24.70
25.07
22.90
17.69
10.17
2.39
-3.11
-4.45
-1.39
4.22
9.22
10.54
6.74
-1.29
-10.84
-19.01
-24.28
-27.23
-29.96
-34.53
-41.46
-49.20
-54.94
-56.03
-51.50
-42.45
-31.16
-20.08
-10.54
-2.51
4.84
12.26
19.76
26.55
31.36
33.24
32.03
28.54
24.21
20.45
18.05
16.97
16.60
16.20
15.41
14.48
13.93
14.22
15.24
16.29
16.13
13.51
7.61
-1.48
-12.63
-23.99
-33.62
-40.20
-43.41
-44.16
-43.93
-44.10
-45.25
-46.92
-47.83
-46.52
-42.11
-34.59
-24.90
-14.54
-5.23
1.64
5.43
6.34
5.40
4.09
3.72
4.92
7.40
10.30
12.49
13.38
13.08
12.21
11.47
11.30
11.58
11.82
11.59
10.67
9.17
7.35
5.39
3.29
0.92
-1.91
-5.25
-9.00
-12.95
-16.98
-21.03
-25.17
-29.39
-33.34
-36.41
-37.68
-36.30
-31.88
-24.59
-15.25
-5.10
4.64
13.07
19.70
24.56
27.98
30.30
31.85
32.80
33.22
33.08
32.36
31.02
29.10
26.83
24.53
22.62
21.42
20.99
21.03
20.97
20.19
18.25
15.13
11.12
6.87
2.94
-0.30
-2.92
-5.29
-8.12
-12.03
-17.32
-23.69
-30.13
-35.28
-37.71
-36.45
-31.29
-23.04
-13.17
-3.43
4.66
10.30
13.44
14.70
14.86
14.62
14.33
13.83
12.65
10.14
5.73
-0.74
-8.73
-17.06
-24.20
-28.68
-29.88
-28.34
-25.65
-23.77
-24.19
-27.35
-32.62
-38.75
-44.32
-48.19
-49.46
-47.51
-41.99
-33.29
-22.67
-12.16
-4.11
-0.19
-0.72
-4.44
-9.01
-12.01
-11.78
-7.96
-1.30
6.89
15.26
22.93
29.52
35.04
39.54
42.98
45.17
45.99
45.61
44.48
43.25
42.45
42.15
41.88
40.91
38.63
34.99
30.50
25.93
21.91
18.51
15.32
11.68
7.17
1.88
-3.62
-8.56
-12.43
-15.14
-17.18
-19.34
-22.40
-26.84
-32.64
-39.19
-45.42
-50.09
-52.16
-51.14
-47.27
-41.37
-34.56
-27.78
-21.35
-14.98
-8.09
-0.29
8.21
16.43
22.92
26.20
25.41
20.74
13.53
6.07
0.86
-0.10
3.84
11.82
21.68
30.89
37.49
40.59
40.48
38.07
34.10
28.88
22.44
14.85
6.73
-0.82
-6.83
-11.07
-14.38
-18.19
-23.64
-30.52
-37.24
-41.31
-40.71
-34.93
-25.35
-14.63
-5.43
0.83
4.34
6.36
8.26
10.65
13.16
14.90
15.24
14.19
12.44
10.86
10.05
10.19
11.10
12.63
14.84
17.79
21.35
24.89
27.48
28.20
26.61
23.00
18.15
12.97
7.91
2.85
-2.80
-9.60
-17.71
-26.60
-35.14
-41.92
-45.53
-45.11
-40.46
-32.22
-21.61
-10.12
0.89
10.51
18.37
24.56
29.35
33.02
35.77
37.71
38.95
39.58
39.65
38.97
37.33
34.50
30.50
25.60
20.26
15.03
10.34
6.44
3.35
0.93
-1.18
-3.39
-6.05
-9.38
-13.32
-17.59
-21.79
-25.69
-29.31
-32.93
-36.85
-41.04
-45.05
-47.99
-48.88
-47.01
-42.21
-34.93
-26.08
-16.82
-8.09
-0.57
5.48
10.08
13.45
15.92
17.89
19.71
21.60
23.58
25.47
26.99
27.86
27.95
27.31
26.25
25.13
24.28
23.88
23.82
23.72
23.01
21.11
17.58
12.42
6.09
-0.61
-6.72
-11.57
-14.91
-17.06
-18.80
-21.05
-24.59
-29.73
-36.05
-42.43
-47.31
-49.16
-46.91
-40.55
-31.06
-20.18
-9.75
-1.11
5.38
10.15
14.01
17.62
21.16
24.35
26.77
28.25
28.94
29.29
29.57
29.76
29.52
28.38
26.13
23.03
19.70
16.93
15.12
14.02
12.80
10.47
6.35
0.58
-5.88
-11.68
-15.62
-17.22
-16.87
-15.60
-14.57
-14.78
-16.77
-20.61
-26.13
-32.93
-40.39
-47.46
-52.91
-55.36
-53.87
-48.19
-38.88
-27.32
-15.17
-4.02
5.15
12.08
17.14
21.01
24.29
27.38
30.27
32.79
34.78
36.24
37.26
37.99
38.46
38.61
38.38
37.72
36.75
35.62
34.36
32.81
30.67
27.70
23.88
19.45
14.80
10.24
5.92
1.79
-2.25
-6.35
-10.54
-14.94
-19.64
-24.63
-29.60
-33.95
-36.86
-37.60
-35.92
-32.24
-27.46
-22.62
-18.40
-14.91
-11.87
-8.94
-6.08
-3.63
-2.08
-1.65
-2.12
-2.79
-2.88
-1.86
0.31
3.14
6.06
8.59
10.57
12.01
12.97
13.30
12.62
10.49
6.65
1.25
-5.07
-11.39
-16.68
-20.19
-21.75
-21.90
-21.73
-22.49
-25.17
-29.92
-36.02
-41.92
-45.80
-46.15
-42.37
-34.84
-24.79
-13.73
-2.93
6.79
15.22
22.36
28.24
32.88
36.14
38.02
38.72
38.68
38.35
38.06
37.77
37.18
35.86
33.55
30.29
26.45
22.57
19.12
16.32
14.02
11.80
9.28
6.20
2.58
-1.38
-5.43
-9.32
-12.90
-16.13
-19.09
-21.95
-25.03
-28.74
-33.33
-38.76
-44.33
-48.89
-51.04
-49.72
-44.62
-36.36
-26.25
-15.81
-6.30
1.62
7.88
12.77
16.76
20.13
22.94
25.06
26.29
26.61
26.19
25.35
24.53
24.01
23.86
23.91
23.81
23.36
22.44
21.18
19.81
18.50
17.26
15.88
14.12
11.65
8.41
4.55
0.44
-3.47
-6.86
-9.77
-12.55
-15.81
-20.15
-25.82
-32.55
-39.43
-45.15
-48.28
-47.77
-43.20
-35.08
-24.61
-13.30
-2.59
6.59
13.92
19.62
24.12
27.78
30.77
33.04
34.58
35.44
35.67
35.21
33.87
31.33
27.40
22.37
16.96
12.06
8.32
5.74
3.71
1.27
-2.26
-6.93
-12.08
-16.72
-19.99
-21.55
-21.55
-20.50
-19.01
-17.64
-17.03
-17.77
-20.42
-25.12
-31.40
-38.11
-43.49
-45.88
-44.13
-38.08
-28.62
-17.50
-6.76
1.96
7.70
10.53
11.48
12.07
13.93
18.34
25.79
35.80
46.91
56.91
63.41
64.60
59.91
50.34
38.18
26.09
16.20
9.44
5.38
2.93
0.85
-1.62
-4.80
-8.77
-13.54
-19.10
-25.27
-31.75
-38.04
-43.65
-48.14
-50.98
-51.59
-49.49
-44.47
-36.89
-27.80
-18.48
-9.94
-2.57
3.99
10.34
16.79
23.09
28.48
32.24
34.01
34.06
33.06
31.72
30.33
28.71
26.48
23.36
19.50
15.41
11.64
8.43
5.50
2.13
-2.27
-7.81
-13.88
-19.50
-23.65
-25.97
-26.77
-26.89
-27.40
-29.16
-32.53
-37.38
-43.05
-48.42
-52.22
-53.30
-51.06
-45.60
-37.74
-28.68
-19.52
-10.87
-2.83
4.72
11.83
18.29
23.63
27.59
30.15
31.52
31.58
29.79
25.35
17.92
8.35
-1.25
-8.25
-10.77
-8.69
-3.67
1.64
5.01
5.63
4.03
1.52
-0.98
-3.45
-6.55
-10.93
-16.69
-23.25
-29.65
-35.17
-39.42
-42.25
-43.48
-42.72
-39.41
-33.31
-24.77
-14.85
-4.97
3.57
10.13
14.92
18.81
22.82
27.67
33.40
39.50
45.07
49.31
51.77
52.50
51.91
50.52
48.81
47.06
45.31
43.51
41.57
39.46
37.17
34.71
32.04
29.12
25.87
22.18
17.97
13.21
8.05
2.69
-2.51
-7.29
-11.58
-15.61
-19.87
-24.82
-30.66
-37.01
-42.78
-46.48
-46.68
-42.51
-34.09
-22.50
-9.40
3.44
14.52
22.78
27.67
29.11
27.56
24.13
20.35
17.79
17.42
19.19
22.04
24.35
24.84
23.14
20.07
16.97
15.10
14.89
15.87
17.09
17.55
16.89
15.25
13.12
10.80
8.31
5.40
1.83
-2.40
-7.04
-11.75
-16.41
-21.07
-26.00
-31.32
-36.89
-42.21
-46.44
-48.52
-47.53
-42.95
-34.96
-24.50
-13.14
-2.55
6.00
12.04
15.87
18.25
19.94
21.40
22.65
23.38
23.21
21.92
19.57
16.58
13.46
10.72
8.71
7.46
6.78
6.37
5.95
5.22
3.89
1.66
-1.69
-6.15
-11.44
-17.05
-22.43
-27.19
-31.16
-34.36
-36.98
-39.27
-41.51
-43.86
-46.19
-47.83
-47.77
-44.91
-38.61
-29.11
-17.57
-5.59
5.30
14.25
21.22
26.68
31.26
35.32
38.82
41.43
42.94
43.35
43.03
42.50
42.06
41.63
40.71
38.74
35.40
30.98
26.20
21.87
18.42
15.56
12.54
8.58
3.32
-2.89
-9.26
-14.93
-19.45
-22.95
-26.14
-29.91
-34.92
-41.33
-48.60
-55.52
-60.52
-62.12
-59.36
-52.22
-41.64
-29.17
-16.47
-4.86
4.93
12.85
19.14
24.23
28.45
31.94
34.70
36.55
37.37
37.04
35.64
33.32
30.41
27.19
23.98
21.11
18.91
17.57
16.99
16.72
15.92
13.91
10.32
5.40
-0.07
-5.18
-9.23
-11.99
-13.68
-14.88
-16.27
-18.49
-22.04
-26.90
-32.43
-37.29
-39.85
-38.74
-33.40
-24.41
-13.23
-1.73
8.50
16.47
21.97
25.30
27.11
28.01
28.56
29.01
29.40
29.69
29.80
29.71
29.50
29.24
29.01
28.80
28.56
28.14
27.38
26.02
23.87
20.86
17.09
12.86
8.63
4.83
1.74
-0.52
-2.06
-3.19
-4.59
-7.19
-11.95
-19.35
-28.83
-38.78
-46.80
-50.73
-49.47
-43.53
-34.74
-25.43
-17.34
-11.14
-6.54
-2.87
0.19
2.48
3.57
3.26
1.92
0.44
-0.15
0.78
3.17
6.22
8.88
10.26
9.99
8.31
5.82
3.21
0.88
-1.06
-2.86
-4.94
-7.65
-11.24
-15.71
-20.99
-26.76
-32.52
-37.59
-41.14
-42.41
-40.90
-36.62
-30.02
-22.02
-13.64
-5.71
1.35
7.41
12.44
16.39
18.87
19.43
17.67
13.67
8.18
2.45
-2.19
-4.82
-5.24
-4.03
-2.24
-0.99
-1.16
-3.06
-6.48
-10.60
-14.40
-16.96
-17.88
-17.42
-16.48
-16.18
-17.36
-20.22
-24.10
-27.85
-30.13
-29.98
-27.04
-21.50
-14.02
-5.40
3.52
12.04
19.56
25.70
30.34
33.56
35.64
36.95
37.83
38.48
38.94
39.17
39.04
38.44
37.19
35.11
32.02
27.86
22.75
17.13
11.61
6.81
3.17
0.73
-0.83
-2.16
-3.99
-6.97
-11.50
-17.59
-24.82
-32.26
-38.61
-42.47
-42.74
-39.22
-32.57
-24.27
-16.04
-9.02
-3.62
0.47
3.86
6.96
9.75
11.77
12.40
11.19
8.12
3.66
-1.33
-5.85
-8.92
-9.92
-8.81
-6.23
-3.18
-0.69
0.55
0.39
-0.99
-3.26
-6.24
-9.82
-14.01
-18.69
-23.76
-29.20
-35.02
-41.25
-47.62
-53.15
-56.22
-54.90
-47.80
-34.81
-17.40
1.85
20.03
34.97
45.58
51.92
54.66
54.58
52.37
48.61
44.09
39.60
35.94
33.42
31.78
30.30
28.12
24.60
19.51
13.17
6.12
-0.89
-7.28
-12.78
-17.57
-22.18
-27.17
-32.76
-38.52
-43.53
-46.67
-47.12
-44.61
-39.35
-31.89
-22.73
-12.35
-1.30
9.66
19.57
27.48
32.87
35.94
37.37
38.10
38.74
39.34
39.54
38.92
37.15
34.36
30.97
27.46
24.29
21.71
19.72
18.20
16.90
15.50
13.78
11.59
8.93
5.91
2.64
-0.83
-4.57
-8.68
-13.24
-18.20
-23.38
-28.46
-32.97
-36.30
-37.71
-36.57
-32.53
-25.83
-17.22
-7.87
1.08
8.84
15.14
20.22
24.47
28.15
31.17
33.13
33.54
32.12
29.05
24.96
20.80
17.40
15.23
14.16
13.64
13.00
11.69
9.58
6.71
3.17
-0.98
-5.73
-10.83
-15.76
-19.83
-22.52
-23.84
-24.39
-25.10
-26.83
-29.78
-33.39
-36.40
-37.41
-35.51
-30.52
-23.10
-14.46
-5.82
1.96
8.57
14.20
19.27
23.97
28.19
31.53
33.58
34.16
33.48
32.00
30.20
28.39
26.59
24.64
22.37
19.69
16.70
13.60
10.59
7.81
5.32
3.09
1.10
-0.70
-2.37
-4.05
-5.96
-8.52
-12.24
-17.55
-24.52
-32.56
-40.33
-46.06
-47.95
-44.98
-37.27
-26.14
-13.52
-1.43
8.82
16.74
22.48
26.41
28.63
28.83
26.51
21.40
13.73
4.50
-4.81
-12.59
-17.62
-19.38
-18.18
-14.97
-10.95
-7.20
-4.39
-2.78
-2.36
-3.06
-4.96
-8.15
-12.58
-17.82
-23.10
-27.66
-31.05
-33.54
-35.85
-38.71
-42.25
-45.66
-47.44
-46.06
-40.72
-31.84
-20.97
-10.12
-1.00
5.65
10.16
13.56
16.87
20.70
25.00
29.29
32.99
35.76
37.63
38.78
39.35
39.18
38.06
35.81
32.61
29.08
25.96
23.80
22.60
21.88
20.79
18.56
14.82
9.72
3.85
-2.05
-7.36
-11.76
-15.18
-17.81
-20.04
-22.35
-25.23
-28.94
-33.36
-37.92
-41.67
-43.47
-42.45
-38.26
-31.27
-22.44
-13.01
-4.13
3.59
9.98
15.26
19.62
23.13
25.78
27.50
28.41
28.75
28.79
28.71
28.51
28.11
27.41
26.37
25.01
23.46
21.84
20.24
18.61
16.73
14.23
10.65
5.71
-0.41
-6.98
-12.95
-17.30
-19.60
-20.09
-19.59
-19.18
-19.80
-21.96
-25.59
-30.15
-34.66
-37.96
-38.87
-36.65
-31.23
-23.29
-14.07
-4.98
2.90
9.08
13.64
17.03
19.73
22.01
23.89
25.24
26.00
26.17
25.90
25.32
24.45
23.21
21.48
19.37
17.19
15.40
14.29
13.72
13.10
11.71
9.10
5.30
0.93
-3.26
-6.71
-9.34
-11.56
-14.02
-17.33
-21.79
-27.28
-33.22
-38.74
-42.83
-44.56
-43.30
-38.88
-31.70
-22.62
-12.81
-3.44
4.47
10.29
13.96
15.78
16.35
16.32
16.11
15.82
15.32
14.38
12.96
11.32
9.75
8.48
7.47
6.40
4.95
3.01
0.79
-1.25
-2.69
-3.43
-3.72
-4.07
-4.99
-6.79
-9.46
-12.87
-16.87
-21.40
-26.46
-31.95
-37.44
-42.13
-44.94
-44.80
-41.11
-33.99
-24.35
-13.67
-3.57
4.76
10.83
14.83
17.45
19.34
20.90
22.13
22.71
22.42
21.24
19.54
17.83
16.62
16.13
16.25
16.69
16.98
16.93
16.47
15.71
14.74
13.54
11.89
9.57
6.54
2.90
-1.03
-4.96
-8.80
-12.78
-17.37
-23.09
-30.18
-38.31
-46.42
-52.93
-56.20
-55.03
-49.18
-39.47
-27.48
-15.07
-3.74
5.68
13.04
18.63
22.80
25.83
27.82
28.86
29.13
28.88
28.42
28.00
27.73
27.48
27.01
26.06
24.52
22.46
20.04
17.45
14.77
11.86
8.57
4.74
0.45
-3.92
-7.93
-11.22
-13.73
-15.79
-17.99
-20.92
-25.06
-30.39
-36.54
-42.69
-47.82
-50.85
-50.92
-47.59
-40.98
-31.90
-21.54
-11.26
-2.16
5.23
10.94
15.35
18.98
22.16
24.93
27.08
28.36
28.64
28.12
27.13
26.09
25.36
25.10
25.24
25.52
25.64
25.24
24.11
22.11
19.17
15.31
10.63
5.32
-0.35
-5.97
-11.14
-15.44
-18.71
-21.17
-23.31
-25.81
-29.14
-33.28
-37.60
-40.93
-41.91
-39.59
-33.92
-25.67
-16.34
-7.39
0.17
6.11
10.75
14.71
18.41
21.77
24.51
26.12
26.35
25.33
23.55
21.63
20.16
19.44
19.42
19.85
20.30
20.42
19.99
18.87
17.00
14.37
11.03
7.12
2.91
-1.33
-5.43
-9.30
-13.15
-17.26
-21.81
-26.84
-32.04
-36.77
-40.17
-41.34
-39.62
-34.93
-27.83
-19.28
-10.49
-2.43
4.43
10.05
14.68
18.65
22.03
24.70
26.46
27.16
26.95
26.14
25.11
24.13
23.33
22.62
21.79
20.61
18.77
16.17
12.82
8.90
4.72
0.63
-3.21
-6.81
-10.27
-13.91
-17.87
-22.31
-27.32
-32.86
-38.71
-44.42
-49.15
-51.86
-51.68
-48.11
-41.43
-32.63
-23.03
-13.92
-6.15
0.11
5.22
9.78
14.21
18.56
22.43
25.28
26.68
26.66
25.63
24.33
23.37
23.10
23.50
24.28
25.12
25.68
25.74
25.07
23.38
20.47
16.30
11.12
5.35
-0.49
-6.03
-11.16
-16.10
-21.31
-27.28
-34.19
-41.74
-49.01
-54.60
-57.05
-55.30
-49.14
-39.35
-27.39
-14.96
-3.43
6.37
14.26
20.38
25.09
28.65
31.31
33.34
34.97
36.38
37.67
38.71
39.34
39.41
38.88
37.90
36.68
35.32
33.82
31.98
29.51
26.10
21.64
16.23
10.19
3.95
-2.12
-7.72
-12.73
-17.21
-21.43
-25.83
-30.82
-36.58
-42.74
-48.45
-52.42
-53.41
-50.65
-44.17
-34.82
-23.95
-12.94
-2.83
5.88
13.24
19.56
25.18
30.25
34.67
38.07
40.10
40.64
39.83
38.17
36.24
34.54
33.29
32.46
31.77
30.97
29.85
28.28
26.19
23.43
19.84
15.30
9.91
4.03
-1.75
-6.89
-11.08
-14.42
-17.46
-20.93
-25.48
-31.31
-37.99
-44.60
-49.85
-52.59
-52.01
-47.97
-40.93
-31.85
-21.90
-12.21
-3.53
3.79
9.78
14.67
18.69
21.97
24.52
26.32
27.45
28.10
28.55
29.10
29.83
30.70
31.54
32.18
32.50
32.36
31.68
30.36
28.29
25.35
21.57
17.12
12.29
7.41
2.76
-1.56
-5.73
-10.11
-15.13
-21.12
-27.93
-34.89
-40.92
-44.83
-45.64
-42.94
-36.99
-28.53
-18.68
-8.58
0.81
8.97
15.70
21.08
25.30
28.42
30.47
31.37
31.06
29.68
27.57
25.13
22.77
20.74
19.05
17.52
15.90
13.94
11.47
8.43
4.88
1.06
-2.73
-6.13
-8.86
-10.89
-12.39
-13.80
-15.71
-18.65
-22.97
-28.70
-35.52
-42.66
-49.13
-53.76
-55.46
-53.59
-48.06
-39.49
-29.05
-18.14
-7.97
0.69
7.61
13.12
17.73
21.95
26.00
29.82
33.05
35.25
36.08
35.52
33.89
31.74
29.80
28.51
27.98
27.96
27.99
27.59
26.38
24.12
20.69
16.15
10.70
4.71
-1.33
-6.93
-11.77
-15.87
-19.56
-23.38
-27.78
-32.99
-38.90
-44.97
-50.31
-53.85
-54.52
-51.65
-45.22
-35.98
-25.19
-14.20
-4.01
4.83
12.27
18.45
23.45
27.20
29.57
30.65
30.82
30.66
30.75
31.27
32.03
32.51
32.09
30.43
27.63
24.19
20.81
18.03
16.01
14.42
12.69
10.21
6.67
2.15
-2.97
-8.11
-12.79
-16.81
-20.34
-23.73
-27.31
-31.31
-35.61
-39.90
-43.69
-46.49
-47.85
-47.39
-44.78
-39.84
-32.61
-23.49
-13.34
-3.29
5.51
12.35
17.06
20.02
21.85
23.10
24.09
24.82
25.20
25.18
24.86
24.37
23.80
23.09
22.12
20.87
19.44
18.10
17.14
16.54
16.02
15.07
13.17
10.08
5.99
1.44
-2.91
-6.60
-9.64
-12.39
-15.41
-19.13
-23.69
-28.70
-33.42
-36.91
-38.15
-36.50
-31.82
-24.60
-15.86
-6.85
1.34
8.04
13.00
16.40
18.45
19.37
19.36
18.65
17.57
16.47
15.54
14.73
13.89
12.79
11.38
9.87
8.49
7.45
6.71
6.01
4.99
3.40
1.17
-1.55
-4.51
-7.51
-10.50
-13.59
-17.05
-21.18
-26.09
-31.63
-37.29
-42.17
-45.29
-45.71
-42.85
-36.75
-28.07
-17.97
-7.85
1.14
8.46
14.11
18.53
22.23
25.35
27.74
29.03
28.99
27.74
25.78
23.69
21.88
20.49
19.52
18.85
18.43
18.11
17.61
16.50
14.34
10.94
6.49
1.52
-3.31
-7.56
-11.20
-14.63
-18.41
-23.05
-28.75
-35.28
-42.06
-48.16
-52.59
-54.45
-53.16
-48.57
-41.08
-31.45
-20.79
-10.28
-0.90
6.71
12.39
16.42
19.31
21.52
23.39
25.02
26.32
27.20
27.64
27.64
27.26
26.47
25.27
23.65
21.71
19.50
16.97
13.97
10.27
5.81
0.78
-4.37
-9.12
-13.20
-16.70
-20.02
-23.73
-28.19
-33.36
-38.91
-44.25
-48.76
-51.83
-52.86
-51.31
-46.80
-39.40
-29.65
-18.62
-7.59
2.36
10.64
17.26
22.58
27.07
30.91
34.02
36.06
36.83
36.33
34.99
33.37
32.00
31.12
30.66
30.28
29.58
28.25
26.19
23.45
20.14
16.36
12.10
7.37
2.32
-2.72
-7.27
-10.88
-13.44
-15.28
-17.22
-20.29
-25.21
-32.07
-40.09
-47.76
-53.40
-55.53
-53.51
-47.66
-39.12
-29.46
-20.08
-11.81
-4.68
1.75
7.97
14.14
19.93
24.68
27.82
29.24
29.24
28.41
27.20
25.80
24.20
22.38
20.40
18.50
16.89
15.66
14.66
13.55
12.05
10.02
7.59
5.08
2.74
0.63
-1.46
-3.92
-7.14
-11.31
-16.38
-22.03
-27.80
-33.11
-37.30
-39.62
-39.38
-36.17
-30.11
-21.96
-12.94
-4.36
2.80
8.14
11.85
14.49
16.59
18.49
20.16
21.41
22.00
21.78
20.79
19.15
17.17
15.11
13.25
11.69
10.36
9.13
7.77
6.21
4.44
2.51
0.30
-2.35
-5.63
-9.58
-13.87
-18.08
-21.85
-25.21
-28.65
-32.87
-38.18
-44.16
-49.61
-52.78
-52.23
-47.23
-38.19
-26.40
-13.56
-1.17
9.85
19.12
26.77
33.02
38.12
42.16
45.07
46.77
47.17
46.10
43.53
39.57
34.65
29.41
24.64
20.90
18.33
16.57
14.95
12.87
9.95
6.16
1.69
-3.26
-8.56
-14.06
-19.63
-24.98
-29.89
-34.30
-38.34
-42.20
-45.70
-48.20
-48.77
-46.56
-41.26
-33.25
-23.53
-13.28
-3.46
5.39
13.06
19.49
24.55
28.08
30.04
30.60
30.28
29.70
29.39
29.60
30.14
30.60
30.53
29.66
28.00
25.77
23.34
20.98
18.77
16.49
13.86
10.49
6.23
1.17
-4.27
-9.57
-14.27
-18.23
-21.71
-25.26
-29.57
-35.07
-41.63
-48.43
-54.13
-57.20
-56.42
-51.35
-42.45
-31.03
-18.69
-6.91
3.24
11.34
17.38
21.63
24.50
26.40
27.72
28.84
30.07
31.49
33.02
34.38
35.27
35.43
34.85
33.68
32.23
30.73
29.20
27.54
25.44
22.63
18.88
14.20
8.72
2.78
-3.15
-8.64
-13.28
-17.02
-20.12
-23.14
-26.76
-31.50
-37.38
-43.98
-50.40
-55.43
-57.84
-56.62
-51.38
-42.48
-31.12
-18.94
-7.44
2.37
10.36
16.89
22.53
27.55
31.79
34.83
36.39
36.58
35.91
34.98
34.14
33.36
32.33
30.72
28.45
25.81
23.30
21.30
19.82
18.42
16.44
13.38
9.08
3.75
-2.13
-7.94
-13.17
-17.52
-20.96
-23.73
-26.26
-29.07
-32.71
-37.33
-42.51
-47.24
-50.23
-50.32
-46.78
-39.69
-30.01
-19.43
-9.51
-1.04
6.12
12.56
18.89
25.33
31.63
37.09
40.84
42.54
42.96
43.37
44.78
47.54
51.55
56.39
61.22
64.78
65.98
64.96
62.73
60.29
58.36
57.48
57.90
59.26
60.29
58.84
53.53
43.14
26.37
2.36
-28.49
-61.53
-86.62
-97.48
-97.83
-94.16
-90.24
-86.55
-81.77
-74.49
-64.41
-55.58
-48.68
-45.02
-43.80
-43.06
-41.14
-37.49
-32.45
-27.13
-23.22
-19.59
-16.96
-14.97
-12.85
-10.19
-7.00
-3.46
0.35
4.25
8.04
10.76
12.21
12.60
12.18
11.12
9.66
8.10
6.52
5.02
3.03
0.42
-2.81
-6.69
-11.35
-16.72
-22.35
-27.41
-30.64
-31.12
-28.17
-21.72
-12.55
-2.09
8.15
16.98
23.78
28.57
31.54
33.03
33.40
32.90
31.70
30.07
28.29
26.62
25.31
24.39
23.79
23.26
22.54
21.37
19.64
17.36
14.64
11.57
8.04
3.84
-1.19
-6.93
-12.92
-18.56
-23.38
-27.35
-30.94
-34.89
-39.67
-44.97
-49.71
-52.22
-51.12
-45.90
-37.16
-26.38
-15.34
-5.39
2.84
9.46
14.94
19.65
23.65
26.67
28.36
28.61
27.67
26.10
24.46
23.16
22.16
21.26
20.15
18.64
16.81
14.90
13.13
11.46
9.69
7.42
4.39
0.50
-4.10
-9.11
-14.15
-18.95
-23.52
-28.11
-33.13
-38.78
-44.90
-50.66
-54.80
-56.01
-53.40
-46.92
-37.45
-26.43
-15.43
-5.58
2.62
9.29
14.81
19.63
23.97
27.88
31.28
34.07
36.19
37.58
38.19
37.87
36.54
34.24
31.26
27.99
24.92
22.30
20.11
18.03
15.63
12.54
8.59
3.95
-1.07
-6.11
-11.02
-15.95
-21.28
-27.36
-34.37
-42.01
-49.46
-55.58
-59.13
-59.14
-55.17
-47.42
-36.72
-24.31
-11.56
0.29
10.32
18.11
23.72
27.56
30.22
32.23
33.91
35.30
36.28
36.70
36.50
35.74
34.55
33.07
31.40
29.56
27.50
25.14
22.44
19.41
16.07
12.52
8.84
5.07
1.15
-3.03
-7.52
-12.30
-17.26
-22.44
-28.01
-34.20
-41.00
-47.81
-53.34
-56.01
-54.53
-48.54
-38.85
-27.14
-15.26
-4.58
4.31
11.55
17.47
22.23
25.75
27.70
28.02
26.95
25.15
23.37
22.21
21.83
22.00
22.36
22.54
22.32
21.64
20.59
19.17
17.45
15.37
12.86
9.91
6.42
2.35
-2.37
-7.75
-13.83
-20.48
-27.55
-34.64
-41.04
-45.78
-47.70
-45.93
-40.18
-31.05
-19.88
-8.36
2.07
10.66
17.37
22.73
27.30
31.28
34.40
36.13
36.14
34.47
31.73
28.76
26.39
25.02
24.59
24.69
24.75
24.34
23.21
21.30
18.61
15.08
10.68
5.47
-0.28
-6.13
-11.59
-16.43
-20.77
-25.12
-30.12
-36.18
-43.15
-50.18
-55.96
-59.02
-58.26
-53.28
-44.54
-33.23
-20.87
-8.85
1.90
11.04
18.74
25.29
30.85
35.34
38.47
40.02
40.10
39.11
37.75
36.61
36.01
35.87
35.77
35.28
34.08
32.20
29.76
26.99
23.91
20.41
16.29
11.45
6.00
0.23
-5.34
-10.27
-14.21
-17.15
-19.45
-21.78
-24.93
-29.52
-35.73
-43.04
-50.36
-56.16
-58.98
-57.81
-52.34
-43.14
-31.36
-18.57
-6.23
4.64
13.62
20.93
27.08
32.64
37.82
42.51
46.30
48.80
49.83
49.50
48.17
46.29
44.27
42.28
40.37
38.41
36.27
33.85
31.05
27.83
24.11
19.88
15.13
10.04
4.86
-0.11
-4.65
-8.70
-12.31
-15.66
-18.84
-21.91
-24.89
-27.84
-30.92
-34.35
-38.35
-42.94
-47.85
-52.52
-56.04
-57.46
-56.04
-51.46
-43.92
-34.21
-23.28
-12.10
-1.36
8.59
17.55
25.38
31.87
36.80
40.03
41.71
42.24
42.14
41.87
41.62
41.31
40.69
39.49
37.60
35.23
32.69
30.30
28.13
25.93
23.23
19.57
14.67
8.57
1.70
-5.36
-12.00
-17.71
-22.26
-25.70
-28.43
-31.08
-34.29
-38.39
-43.13
-47.61
-50.56
-50.79
-47.59
-41.07
-31.98
-21.54
-10.87
-0.91
7.82
15.10
20.87
25.21
28.16
29.86
30.57
30.66
30.47
30.26
30.07
29.67
28.76
27.15
24.84
22.08
19.17
16.34
13.56
10.69
7.57
4.15
0.49
-3.21
-6.76
-10.02
-12.90
-15.38
-17.57
-19.80
-22.58
-26.51
-31.91
-38.49
-45.25
-50.69
-53.27
-51.99
-46.78
-38.45
-28.35
-17.95
-8.33
-0.06
6.80
12.39
16.96
20.57
23.20
24.72
25.17
24.77
23.97
23.33
23.26
23.94
25.14
26.39
27.21
27.32
26.64
25.29
23.47
21.20
18.37
14.87
10.63
5.82
0.77
-4.09
-8.38
-11.93
-14.89
-17.65
-20.77
-24.83
-30.13
-36.67
-43.99
-51.21
-57.07
-60.30
-59.96
-55.76
-48.18
-38.26
-27.32
-16.48
-6.45
2.45
10.14
16.62
21.84
25.70
28.25
29.54
29.78
29.14
27.91
26.39
24.94
23.86
23.30
23.26
23.55
23.89
24.01
23.71
22.89
21.54
19.60
16.97
13.55
9.20
3.96
-1.91
-7.97
-13.64
-18.47
-22.36
-25.65
-28.99
-33.03
-37.99
-43.56
-48.81
-52.51
-53.52
-51.16
-45.35
-36.77
-26.49
-15.70
-5.42
3.66
11.29
17.44
22.19
25.67
28.02
29.39
30.01
30.13
29.84
29.16
28.00
26.31
24.17
21.77
19.33
17.10
15.18
13.61
12.30
11.06
9.60
7.55
4.60
0.69
-3.89
-8.57
-12.74
-15.95
-18.07
-19.34
-20.16
-20.93
-22.03
-23.71
-26.09
-28.96
-31.78
-33.56
-33.26
-30.07
-23.83
-15.33
-5.87
3.14
10.70
16.49
20.69
23.69
25.70
26.77
26.69
25.37
22.89
19.58
15.89
12.24
9.00
6.44
4.77
3.99
3.97
4.42
4.91
5.09
4.63
3.46
1.52
-1.05
-4.09
-7.36
-10.59
-13.52
-15.97
-18.02
-19.92
-22.10
-24.87
-28.31
-31.98
-35.08
-36.69
-36.06
-32.97
-27.74
-21.14
-13.99
-6.96
-0.44
5.39
10.43
14.58
17.80
20.07
21.41
21.95
21.78
20.99
19.63
17.78
15.59
13.23
10.92
8.74
6.80
5.12
3.64
2.19
0.57
-1.37
-3.77
-6.63
-9.82
-13.14
-16.32
-19.23
-21.87
-24.41
-27.21
-30.57
-34.62
-39.06
-43.12
-45.79
-46.06
-43.19
-37.15
-28.51
-18.35
-7.90
1.68
9.56
15.27
18.70
20.16
20.17
19.41
18.57
18.15
18.35
19.07
19.93
20.59
20.87
20.78
20.54
20.35
20.23
19.98
19.33
17.99
15.96
13.39
10.54
7.60
4.57
1.26
-2.47
-6.52
-10.72
-14.87
-19.02
-23.55
-28.99
-35.58
-42.93
-49.90
-54.84
-56.26
-53.31
-46.26
-36.32
-25.12
-14.19
-4.48
3.68
10.39
15.82
20.00
22.86
24.33
24.68
24.40
24.10
24.16
24.59
25.00
24.86
23.93
22.30
20.46
19.02
18.39
18.53
18.93
18.81
17.39
14.25
9.39
3.26
-3.50
-10.18
-16.13
-20.87
-24.18
-26.19
-27.34
-28.41
-30.15
-32.95
-36.51
-39.83
-41.58
-40.71
-36.87
-30.55
-22.83
-14.81
-7.24
-0.44
5.63
11.09
15.96
20.14
23.51
26.00
27.61
28.38
28.33
27.48
25.96
24.02
21.96
20.09
18.53
17.32
16.42
15.70
15.03
14.27
13.25
11.70
9.45
6.23
2.02
-2.96
-8.32
-13.61
-18.48
-22.93
-27.26
-31.76
-36.44
-40.70
-43.32
-43.03
-38.94
-31.12
-20.65
-9.29
1.30
10.02
16.64
21.55
25.21
27.90
29.44
29.45
27.74
24.60
20.78
17.27
14.91
14.00
14.42
15.61
16.88
17.58
17.26
15.69
12.82
8.90
4.17
-0.98
-6.29
-11.64
-16.95
-22.18
-27.28
-32.26
-37.17
-42.21
-47.37
-52.31
-56.19
-57.83
-56.19
-50.83
-42.20
-31.49
-20.26
