1479330690.00
64.000000
-0.00
-0.00
-0.00
-0.00
-0.00
-0.00
-0.00
-0.00
-0.00
-0.00
0.01
0.02
0.02
-0.00
-0.03
-0.07
-0.06
0.00
0.16
0.41
0.71
0.99
1.19
1.27
1.29
1.30
1.40
1.67
2.13
2.71
3.31
3.81
4.15
4.38
4.60
4.96
5.56
6.46
7.49
8.43
9.06
9.29
9.25
9.26
9.73
10.92
12.96
15.45
17.81
19.49
20.24
20.36
20.56
21.75
24.55
29.20
34.89
40.43
44.66
47.03
47.97
48.80
51.10
56.02
63.96
73.65
83.15
90.53
94.85
96.69
97.89
100.85
105.65
114.50
127.29
142.82
158.31
169.46
171.25
159.54
133.19
95.39
53.64
16.56
-9.07
-21.39
-24.22
-25.27
-32.75
-52.02
-84.13
-126.10
-173.58
-222.43
-269.80
-313.84
-352.87
-384.67
-406.59
-416.42
-413.20
-398.03
-373.63
-343.30
-309.78
-274.57
-237.97
-199.60
-159.32
-117.78
-76.67
-38.17
-4.25
23.98
46.54
64.40
78.94
91.38
102.33
111.73
119.05
123.78
125.70
125.13
122.73
119.36
115.69
112.09
108.55
104.85
100.75
96.11
90.97
85.55
80.09
74.81
69.82
65.12
60.67
56.39
52.23
48.18
44.27
40.52
36.95
33.57
30.36
27.35
24.52
21.89
19.45
17.20
15.14
13.28
11.60
10.11
8.78
7.62
6.60
5.72
4.96
4.30
3.74
3.26
2.85
2.51
2.22
1.98
1.77
1.59
1.44
1.31
1.20
1.11
1.03
0.96
0.89
0.84
0.79
0.74
0.70
0.66
0.63
0.60
0.57
0.54
0.52
0.50
0.47
0.45
0.43
0.42
0.40
0.39
0.37
0.36
0.34
0.33
0.32
0.31
0.30
0.29
0.28
0.27
0.26
0.25
0.24
0.23
0.23
0.22
0.21
0.21
0.20
0.19
0.19
0.18
0.17
0.17
0.17
0.17
0.16
0.17
0.17
0.18
0.20
0.21
0.23
0.26
0.29
0.32
0.36
0.39
0.43
0.47
0.51
0.55
0.59
0.64
0.68
0.74
0.79
0.85
0.92
0.99
1.07
1.16
1.26
1.38
1.50
1.65
1.80
1.98
2.17
2.39
2.65
2.93
3.24
3.55
3.87
4.18
4.49
4.84
5.23
5.69
6.23
6.84
7.47
8.12
8.76
9.39
10.06
10.80
11.63
12.57
13.58
14.62
15.62
16.53
17.35
18.12
18.81
19.42
19.85
19.89
19.32
17.92
15.60
12.39
8.55
4.31
0.02
-4.13
-8.15
-12.13
-16.18
-20.30
-24.29
-27.75
-30.28
-31.59
-31.72
-31.11
-30.34
-30.05
-30.57
-31.81
-33.29
-34.41
-34.72
-34.15
-33.06
-32.04
-31.68
-32.44
-34.57
-38.06
-42.44
-46.63
-48.88
-47.28
-40.52
-28.69
-13.59
1.81
14.50
22.57
25.86
25.68
23.91
21.97
20.39
18.92
17.05
14.66
12.10
10.07
9.26
9.92
11.85
14.48
17.12
19.24
20.64
21.39
21.74
21.98
22.13
22.01
21.28
19.76
17.49
14.83
12.33
10.04
8.26
7.11
6.51
6.32
6.43
6.84
7.66
8.93
10.56
12.27
13.59
14.10
13.63
12.38
10.82
9.47
8.64
8.33
8.37
8.46
8.37
7.94
7.18
6.11
4.82
3.41
1.93
0.45
-1.01
-2.51
-4.07
-5.60
-6.97
-8.09
-9.03
-10.03
-11.38
-13.26
-15.64
-18.21
-20.59
-22.54
-24.06
-25.43
-26.95
-28.84
-31.11
-33.64
-36.29
-39.02
-41.82
-44.55
-46.77
-47.78
-46.78
-43.30
-37.37
-29.71
-21.42
-13.58
-6.85
-1.35
3.26
7.46
11.61
15.77
19.82
23.50
26.64
29.11
30.88
31.93
32.31
32.12
31.51
30.70
29.87
29.14
28.56
28.14
27.77
27.36
26.76
25.86
24.61
23.11
21.54
20.14
19.12
18.52
18.25
18.09
17.81
17.21
16.17
14.68
12.79
10.66
8.50
6.57
5.01
3.86
2.94
2.04
1.00
-0.15
-1.22
-1.92
-2.09
-1.82
-1.46
-1.44
-2.07
-3.44
-5.35
-7.47
-9.48
-11.22
-12.68
-14.01
-15.43
-17.21
-19.65
-22.97
-27.17
-31.90
-36.44
-39.87
-41.39
-40.63
-37.75
-33.30
-27.95
-22.25
-16.45
-10.66
-4.91
0.70
5.95
10.58
14.35
17.11
18.80
19.49
19.33
18.59
17.56
16.52
15.69
15.19
15.11
15.51
16.38
17.66
19.23
20.84
22.28
23.36
24.05
24.45
24.71
24.96
25.24
25.47
25.53
25.41
25.17
25.00
25.07
25.44
26.02
26.61
27.05
27.28
27.39
27.49
27.62
27.65
27.45
27.04
26.70
26.97
28.34
30.95
34.40
37.84
40.35
41.31
40.74
39.22
37.59
36.54
36.37
36.94
37.96
39.39
41.66
45.65
52.45
62.98
77.89
97.44
121.46
149.32
179.77
210.84
240.08
265.00
283.67
295.18
299.66
297.81
290.35
277.64
259.78
237.04
210.29
181.22
151.88
124.19
99.39
77.88
59.33
42.99
28.04
13.72
-0.49
-14.84
-29.13
-42.84
-55.31
-66.30
-76.32
-86.54
-98.35
-112.50
-128.54
-144.94
-159.91
-172.50
-183.18
-193.60
-205.50
-219.49
-234.56
-248.56
-259.40
-266.21
-269.80
-272.03
-274.60
-277.93
-280.87
-281.29
-277.21
-267.95
-254.40
-238.68
-223.05
-209.02
-196.78
-185.39
-173.50
-160.19
-145.56
-130.66
-117.00
-105.84
-97.56
-91.54
-86.41
-80.71
-73.47
-64.50
-54.21
-43.19
-31.72
-19.65
-6.48
8.16
24.19
40.91
57.15
71.66
83.39
91.71
96.33
97.15
94.18
87.57
77.85
66.04
53.62
42.29
33.53
28.22
26.43
27.57
30.66
34.74
39.01
42.95
46.18
48.42
49.51
49.50
48.68
47.50
46.48
45.92
45.98
46.63
47.87
49.75
52.27
55.24
58.19
60.39
61.09
59.82
56.51
51.48
45.21
38.24
30.94
23.60
16.47
9.78
3.70
-1.75
-6.80
-11.85
-17.37
-23.69
-30.86
-38.53
-46.10
-52.95
-58.74
-63.50
-67.60
-71.53
-75.71
-80.28
-85.18
-90.16
-94.85
-98.70
-100.92
-100.65
-97.20
-90.48
-81.21
-70.68
-60.43
-51.61
-44.65
-39.29
-34.84
-30.56
-25.98
-21.01
-15.87
-11.06
-7.06
-4.26
-2.84
-2.65
-3.25
-4.02
-4.37
-3.90
-2.55
-0.52
1.80
3.93
5.47
6.17
5.89
4.66
2.59
-0.15
-3.32
-6.67
-9.99
-13.11
-15.94
-18.48
-20.67
-22.39
-23.42
-23.43
-22.16
-19.55
-15.74
-11.14
-6.17
-1.23
3.50
7.97
12.25
16.41
20.46
24.35
28.02
31.35
34.24
36.62
38.44
39.69
40.40
40.64
40.45
39.81
38.61
36.64
33.66
29.60
24.66
19.36
14.41
10.45
7.87
6.72
6.81
7.83
9.55
11.78
14.35
16.95
19.21
20.76
21.38
21.05
19.89
18.09
15.87
13.43
11.12
9.29
8.27
8.18
8.81
9.71
10.28
10.09
9.00
7.27
5.38
3.91
3.18
3.22
3.73
4.21
4.17
3.27
1.40
-1.30
-4.43
-7.49
-9.83
-10.91
-10.36
-8.27
-5.29
-2.55
-1.32
-2.52
-6.39
-12.28
-18.93
-24.99
-29.45
-31.98
-32.78
-32.34
-31.08
-29.27
-27.07
-24.78
-22.84
-21.76
-21.74
-22.41
-22.81
-21.79
-18.52
-13.06
-6.41
-0.16
4.08
5.38
3.75
0.07
-4.30
-8.04
-10.29
-10.76
-9.65
-7.42
-4.48
-1.04
2.92
7.63
13.25
19.82
27.15
34.88
42.74
50.59
58.51
66.67
75.21
84.02
92.82
101.23
108.93
115.83
122.08
127.95
133.71
139.47
144.99
149.83
153.25
154.31
151.98
145.27
133.41
116.10
93.79
67.68
39.58
11.50
-14.82
-38.26
-58.41
-75.40
-89.60
-101.42
-111.27
-119.72
-127.57
-135.91
-145.77
-157.79
-171.93
-187.44
-203.26
-218.43
-232.39
-244.98
-256.16
-265.78
-273.52
-279.11
-282.55
-284.18
-284.55
-284.15
-283.25
-282.01
-280.74
-279.97
-280.32
-282.10
-285.04
-288.33
-291.21
-293.47
-295.70
-298.78
-303.14
-308.08
-311.88
-312.36
-307.79
-297.35
-281.13
-259.59
-233.03
-201.42
-164.56
-122.43
-75.43
-24.35
29.78
85.75
142.27
197.89
251.11
300.75
346.33
388.34
428.31
468.52
511.10
556.97
604.59
649.34
683.93
700.06
691.00
654.12
592.29
513.33
427.73
345.53
273.71
215.00
168.61
131.88
102.01
77.05
55.94
37.92
21.99
6.92
-8.45
-24.74
-41.66
-58.26
-73.41
-86.28
-96.67
-104.89
-111.55
-117.11
-121.60
-124.56
-125.29
-123.17
-118.18
-111.09
-103.29
-96.23
-90.76
-86.66
-82.84
-77.83
-70.58
-60.86
-49.31
-36.96
-24.87
-13.69
-3.70
5.17
13.15
20.63
28.03
35.65
43.52
51.35
58.63
64.99
70.36
75.08
79.69
84.65
90.15
96.13
102.51
109.24
116.32
123.62
130.63
136.57
140.47
141.58
139.50
134.28
126.21
115.60
102.68
87.72
71.12
53.63
36.19
19.77
5.09
-7.49
-17.78
-25.60
-30.58
-32.24
-30.29
-24.99
-17.26
-8.55
-0.36
6.15
10.53
12.95
13.93
14.09
13.83
13.26
12.22
10.45
7.73
3.95
-0.80
-6.28
-12.19
-18.17
-23.78
-28.49
-31.67
-32.76
-31.37
-27.55
-21.86
-15.25
-8.82
-3.44
0.45
3.01
4.85
6.74
9.27
12.56
16.22
19.55
21.85
22.75
22.43
21.43
20.40
19.79
19.64
19.75
19.77
19.49
18.84
17.89
16.72
15.38
13.87
12.24
10.60
9.08
7.84
6.88
6.12
5.42
4.62
3.65
2.51
1.28
0.04
-1.12
-2.17
-3.11
-3.98
-4.89
-5.94
-7.24
-8.82
-10.63
-12.50
-14.22
-15.62
-16.71
-17.68
-18.82
-20.34
-22.30
-24.52
-26.76
-28.85
-30.82
-32.86
-35.25
-38.17
-41.67
-45.68
-49.93
-53.98
-57.18
-58.82
-58.23
-55.14
-49.73
-42.68
-34.94
-27.39
-20.55
-14.60
-9.46
-4.93
-0.91
2.63
5.70
8.27
10.37
12.01
13.14
13.73
13.77
13.33
12.58
11.71
10.98
10.56
10.57
11.04
11.86
12.90
13.95
14.79
15.24
15.12
14.39
13.09
11.41
9.61
7.87
6.25
4.65
2.89
0.85
-1.41
-3.69
-5.72
-7.38
-8.71
-9.86
-10.96
-11.96
-12.63
-12.74
-12.19
-11.17
-10.06
-9.28
-9.09
-9.42
-9.99
-10.49
-10.76
-10.98
-11.67
-13.40
-16.62
-21.37
-27.18
-33.12
-38.08
-41.14
-41.75
-39.91
-36.01
-30.65
-24.41
-17.78
-11.15
-4.85
0.78
5.49
9.15
11.90
14.03
15.89
17.70
19.44
20.91
21.83
22.08
21.74
21.15
20.69
20.66
21.13
21.91
22.71
23.24
23.34
23.02
22.43
21.67
20.77
19.70
18.40
16.90
15.30
13.74
12.30
10.95
9.60
8.14
6.60
5.13
3.91
3.02
2.34
1.56
0.35
-1.50
-3.86
-6.41
-8.78
-10.74
-12.31
-13.67
-15.07
-16.66
-18.42
-20.26
-22.11
-23.98
-25.91
-27.97
-30.18
-32.60
-35.36
-38.62
-42.41
-46.48
-50.18
-52.63
-52.98
-50.78
-46.17
-39.78
-32.51
-25.16
-18.27
-12.04
-6.52
-1.75
2.25
5.50
8.13
10.36
12.46
14.56
16.63
18.49
19.90
20.70
20.90
20.68
20.33
20.16
20.33
20.83
21.50
22.17
22.69
23.04
23.26
23.43
23.54
23.57
23.49
23.30
23.06
22.76
22.33
21.57
20.27
18.34
15.90
13.30
10.94
9.13
7.90
7.05
6.17
4.88
2.94
0.37
-2.54
-5.41
-7.87
-9.75
-11.15
-12.42
-13.98
-16.11
-18.76
-21.58
-24.03
-25.74
-26.68
-27.31
-28.34
-30.46
-33.97
-38.63
-43.71
-48.32
-51.62
-53.06
-52.46
-49.91
-45.78
-40.64
-35.25
-30.37
-26.36
-22.90
-18.99
-13.30
-4.93
5.95
18.01
29.18
37.54
42.13
43.25
42.15
40.24
38.44
36.91
35.35
33.44
31.25
29.25
28.00
27.76
28.31
29.07
29.27
28.38
26.32
23.46
20.41
17.80
15.97
14.91
14.29
13.67
12.74
11.40
9.87
8.46
7.46
6.94
6.68
6.24
5.23
3.42
0.86
-2.10
-4.97
-7.31
-8.82
-9.53
-9.80
-10.15
-11.14
-13.08
-15.92
-19.23
-22.47
-25.27
-27.58
-29.67
-31.97
-34.76
-38.08
-41.80
-45.73
-49.71
-53.49
-56.60
-58.37
-58.05
-55.18
-49.89
-42.87
-35.20
-27.85
-21.38
-15.80
-10.77
-5.84
-0.73
4.65
10.16
15.53
20.40
24.45
27.49
29.52
30.78
31.65
32.49
33.49
34.69
35.95
37.15
38.19
39.03
39.57
39.70
39.18
37.87
35.79
33.17
30.41
27.88
25.76
23.98
22.32
20.47
18.28
15.82
13.31
11.08
9.33
8.10
7.21
6.41
5.41
4.07
2.38
0.40
-1.81
-4.20
-6.66
-9.04
-11.11
-12.76
-14.00
-15.08
-16.35
-18.12
-20.46
-23.22
-26.08
-28.71
-31.01
-33.07
-35.21
-37.81
-41.15
-45.32
-50.11
-54.98
-59.11
-61.62
-61.77
-59.21
-54.14
-47.11
-39.03
-30.75
-22.88
-15.67
-9.04
-2.77
3.27
9.01
14.24
18.77
22.67
26.21
29.81
33.69
37.67
41.29
43.89
45.10
44.95
43.87
42.42
41.04
39.79
38.51
36.93
34.98
32.78
30.57
28.60
26.90
25.34
23.77
22.06
20.22
18.35
16.53
14.70
12.69
10.40
7.85
5.28
3.08
1.51
0.63
0.16
-0.34
-1.35
-3.12
-5.63
-8.56
-11.53
-14.18
-16.42
-18.38
-20.29
-22.40
-24.78
-27.32
-29.76
-31.89
-33.64
-35.16
-36.72
-38.62
-41.04
-43.91
-46.93
-49.55
-51.15
-51.11
-49.01
-44.79
-38.66
-31.15
-22.86
-14.33
-6.01
1.79
8.80
14.83
19.76
23.63
26.57
28.80
30.47
31.62
32.21
32.25
31.79
31.04
30.20
29.46
28.90
28.50
28.13
27.63
26.87
25.80
24.46
22.98
21.53
20.17
18.85
17.39
15.66
13.69
11.76
10.24
9.39
9.18
9.27
9.17
8.50
7.17
5.41
3.51
1.69
-0.05
-1.92
-4.09
-6.61
-9.35
-12.00
-14.31
-16.18
-17.74
-19.28
-21.08
-23.27
-25.71
-28.12
-30.16
-31.75
-33.08
-34.58
-36.73
-39.86
-43.90
-48.40
-52.63
-55.70
-56.80
-55.39
-51.31
-44.91
-36.88
-28.11
-19.39
-11.22
-3.75
3.18
9.78
16.25
22.59
28.66
34.20
38.85
42.28
44.23
44.66
43.82
42.19
40.36
38.81
37.75
37.11
36.59
35.87
34.76
33.22
31.46
29.74
28.33
27.36
26.77
26.32
25.70
24.73
23.35
21.66
19.75
17.62
15.18
12.46
9.60
6.97
4.96
3.78
3.26
2.97
2.35
1.00
-1.15
-3.90
-6.90
-9.81
-12.40
-14.61
-16.54
-18.33
-20.11
-21.98
-23.89
-25.77
-27.49
-28.99
-30.29
-31.55
-32.99
-34.87
-37.37
-40.58
-44.47
-48.80
-53.13
-56.74
-58.85
-58.75
-56.04
-50.78
-43.41
-34.74
-25.69
-17.06
-9.39
-2.86
2.71
7.70
12.44
17.04
21.30
24.83
27.28
28.60
29.05
29.17
29.46
30.21
31.43
32.91
34.40
35.77
36.93
37.81
38.24
37.97
36.74
34.48
31.38
27.90
24.61
22.01
20.34
19.52
19.13
18.69
17.78
16.19
14.00
11.49
8.99
6.77
4.94
3.45
2.10
0.69
-0.87
-2.59
-4.39
-6.19
-7.97
-9.81
-11.81
-14.03
-16.45
-18.94
-21.32
-23.54
-25.61
-27.64
-29.74
-31.91
-34.10
-36.30
-38.62
-41.27
-44.44
-48.02
-51.43
-53.71
-53.76
-50.86
-44.97
-36.81
-27.57
-18.51
-10.42
-3.55
2.35
7.71
12.75
17.37
21.25
23.99
25.48
25.94
25.82
25.64
25.72
26.10
26.60
26.94
26.89
26.39
25.56
24.60
23.80
23.43
23.59
24.33
25.49
26.79
27.94
28.65
28.63
27.67
25.64
22.54
18.67
14.60
11.06
8.69
7.74
7.96
8.65
8.96
8.19
6.11
3.01
-0.49
-3.75
-6.33
-8.19
-9.62
-11.05
-12.85
-15.11
-17.69
-20.30
-22.70
-24.82
-26.73
-28.62
-30.63
-32.90
-35.56
-38.77
-42.65
-47.22
-52.18
-56.87
-60.34
-61.64
-60.10
-55.59
-48.54
-39.77
-30.22
-20.61
-11.35
-2.55
5.78
13.53
20.42
26.07
30.22
32.90
34.47
35.50
36.42
37.45
38.48
39.22
39.45
39.08
38.19
36.99
35.67
34.30
32.88
31.34
29.68
27.94
26.20
24.59
23.19
22.04
21.06
20.11
19.04
17.74
16.22
14.57
12.90
11.28
9.72
8.14
6.53
4.89
3.26
1.65
0.06
-1.61
-3.45
-5.56
-7.97
-10.58
-13.20
-15.65
-17.81
-19.75
-21.64
-23.74
-26.16
-28.89
-31.66
-34.09
-35.88
-36.94
-37.52
-38.15
-39.47
-41.94
-45.61
-49.89
-53.67
-55.60
-54.56
-50.20
-42.98
-34.08
-24.79
-16.11
-8.43
-1.67
4.44
10.01
14.94
19.04
22.28
24.82
26.99
29.02
30.91
32.35
33.03
32.71
31.49
29.79
28.17
27.12
26.86
27.22
27.74
27.89
27.27
25.81
23.70
21.23
18.65
16.07
13.52
11.06
8.80
6.89
5.37
4.10
2.82
1.23
-0.85
-3.45
-6.51
-9.94
-13.74
-17.87
-22.30
-26.95
-31.67
-36.30
-40.65
-44.53
-47.71
-50.07
-51.60
-52.45
-52.78
-52.63
-51.83
-50.07
-47.07
-42.86
-37.96
-33.22
-29.54
-27.53
-27.23
-28.09
-29.21
-29.57
-28.33
-25.09
-19.85
-13.05
-5.45
2.11
8.85
14.22
18.06
20.51
21.89
22.54
22.75
22.70
22.52
22.34
22.20
22.04
21.64
20.70
19.07
16.81
14.26
11.88
10.07
8.97
8.50
8.64
9.61
12.02
16.74
24.51
35.52
49.10
63.86
77.94
89.67
97.97
102.53
103.67
101.96
97.88
91.68
83.45
73.40
62.04
50.28
39.17
29.63
22.07
16.29
11.68
7.44
2.97
-1.98
-7.39
-13.05
-18.72
-24.16
-29.13
-33.35
-36.65
-39.06
-40.96
-42.95
-45.69
-49.55
-54.40
-59.54
-63.88
-66.22
-65.68
-61.96
-55.43
-47.02
-37.89
-28.99
-20.84
-13.49
-6.74
-0.44
5.38
10.50
14.78
18.21
21.07
23.64
26.06
28.22
29.86
30.79
30.98
30.69
30.26
29.96
29.93
30.15
30.50
30.84
31.09
31.15
30.96
30.44
29.48
28.04
26.12
23.89
21.59
19.52
17.88
16.69
15.83
15.04
14.07
12.75
11.07
9.14
7.12
5.12
3.17
1.13
-1.19
-3.93
-7.10
-10.48
-13.70
-16.36
-18.31
-19.68
-20.91
-22.47
-24.69
-27.60
-30.94
-34.38
-37.63
-40.59
-43.33
-46.03
-48.87
-52.06
-55.71
-59.78
-63.97
-67.65
-69.99
-70.07
-67.27
-61.43
-52.95
-42.73
-31.87
-21.39
-11.93
-3.79
3.09
8.85
13.67
17.65
20.88
23.46
25.52
27.13
28.28
28.91
28.99
28.60
28.02
27.56
27.43
27.61
27.85
27.88
27.57
26.99
26.28
25.49
24.46
22.96
20.80
18.14
15.38
12.99
11.22
9.92
8.69
7.09
4.96
2.49
0.10
-1.73
-2.75
-2.93
-2.42
-1.41
-0.07
1.55
3.40
5.40
7.40
9.11
10.17
10.22
9.04
6.60
3.15
-0.90
-5.04
-8.91
-12.40
-15.66
-19.09
-23.15
-28.22
-34.49
-41.90
-50.07
-58.36
-65.94
-71.89
-75.38
-75.93
-73.49
-68.52
-61.83
-54.37
-46.93
-40.03
-33.86
-28.53
-24.16
-21.04
-19.52
-19.81
-21.86
-25.24
-29.30
-33.38
-37.11
-40.51
-43.95
-48.03
-53.16
-59.07
-64.49
-67.05
-63.69
-51.65
-29.61
1.51
38.51
76.66
111.17
138.45
156.84
166.63
169.42
167.39
162.71
157.19
152.11
148.04
144.74
141.17
135.88
127.58
115.57
100.23
82.79
65.04
48.66
34.78
23.76
15.26
8.43
2.27
-4.17
-11.65
-20.64
-31.14
-42.65
-54.27
-64.91
-73.76
-80.50
-85.42
-89.23
-92.70
-96.42
-100.66
-105.44
-110.39
-114.62
-116.64
-114.30
-105.43
-88.56
-63.83
-33.24
-0.28
31.05
57.46
77.03
89.41
95.33
95.99
92.65
86.41
78.27
69.28
60.58
53.10
47.34
43.18
39.93
36.66
32.69
27.78
22.28
16.81
11.93
7.87
4.47
1.36
-1.76
-4.78
-7.16
-8.14
-7.09
-3.94
0.62
5.27
8.38
8.74
5.94
0.55
-6.16
-12.81
-18.35
-22.39
-25.09
-26.92
-28.42
-30.03
-31.92
-33.99
-35.88
-37.14
-37.31
-36.16
-33.73
-30.28
-26.20
-21.96
-18.01
-14.80
-12.74
-12.15
-13.10
-15.45
-18.89
-23.05
-27.65
-32.45
-37.27
-41.96
-46.36
-50.39
-53.96
-56.82
-58.51
-58.34
-55.68
-50.29
-42.51
-33.19
-23.41
-14.02
-5.48
2.22
9.25
15.79
21.88
27.46
32.56
37.26
41.77
46.24
50.76
55.35
59.98
64.60
69.08
73.28
77.05
80.33
83.22
85.89
88.40
90.55
91.90
91.74
89.47
84.69
77.39
67.88
56.71
44.50
31.85
19.41
7.80
-2.45
-10.99
-17.82
-23.25
-27.82
-32.12
-36.50
-41.05
-45.53
-49.54
-52.72
-54.89
-56.06
-56.50
-56.60
-56.77
-57.35
-58.50
-60.13
-62.00
-63.79
-65.24
-66.31
-67.17
-68.14
-69.65
-72.05
-75.50
-79.92
-84.82
-89.48
-92.91
-94.10
-92.20
-86.76
-77.85
-66.09
-52.53
-38.41
-24.93
-12.92
-2.69
5.90
13.24
19.68
25.38
30.24
34.14
37.11
39.29
40.94
42.24
43.22
43.86
44.18
44.34
44.57
45.10
45.97
46.95
47.67
47.74
46.89
45.10
42.56
39.61
36.68
34.08
32.04
30.57
29.57
28.79
28.00
27.01
25.67
23.85
21.48
18.55
15.17
11.64
8.33
5.62
3.75
2.73
2.27
1.90
1.01
-0.89
-3.98
-8.07
-12.61
-16.95
-20.64
-23.59
-26.04
-28.39
-30.90
-33.56
-36.19
-38.65
-41.05
-43.76
-47.25
-51.66
-56.62
-61.20
-64.24
-64.74
-62.16
-56.56
-48.48
-38.74
-28.19
-17.53
-7.31
2.17
10.68
18.10
24.34
29.41
33.40
36.55
39.06
41.10
42.72
43.83
44.32
44.20
43.61
42.80
42.04
41.53
41.36
41.53
41.88
42.15
41.99
41.06
39.25
36.81
34.18
31.92
30.30
29.25
28.37
27.28
25.79
24.05
22.37
21.00
19.90
18.79
17.26
15.09
12.38
9.55
7.07
5.20
3.95
3.02
2.05
0.75
-0.98
-3.15
-5.76
-8.86
-12.53
-16.71
-21.07
-25.06
-28.17
-30.19
-31.44
-32.74
-34.99
-38.84
-44.33
-50.89
-57.58
-63.33
-67.20
-68.53
-66.96
-62.42
-55.18
-45.86
-35.33
-24.51
-14.14
-4.65
3.86
11.44
18.08
23.61
27.68
30.10
31.00
30.89
30.58
30.84
32.09
34.27
36.80
38.98
40.22
40.32
39.52
38.29
37.07
36.06
35.15
34.07
32.62
30.93
29.31
28.11
27.37
26.70
25.46
23.09
19.57
15.42
11.55
8.72
7.13
6.39
5.73
4.50
2.51
0.01
-2.54
-4.75
-6.56
-8.18
-9.95
-12.13
-14.90
-18.31
-22.29
-26.70
-31.22
-35.47
-39.04
-41.70
-43.61
-45.26
-47.37
-50.59
-55.16
-60.81
-66.66
-71.50
-74.06
-73.38
-69.09
-61.51
-51.59
-40.51
-29.41
-19.03
-9.66
-1.23
6.42
13.37
19.58
24.94
29.41
33.08
36.11
38.58
40.45
41.57
41.91
41.61
41.03
40.63
40.73
41.42
42.44
43.33
43.60
42.94
41.35
39.13
36.73
34.54
32.70
31.10
29.51
27.73
25.77
23.87
22.22
20.86
19.60
18.09
16.14
13.88
11.67
9.89
8.60
7.48
6.00
3.73
0.59
-3.09
-6.76
-10.01
-12.70
-15.03
-17.38
-20.11
-23.39
-27.16
-31.15
-34.97
-38.33
-41.13
-43.59
-46.19
-49.48
-53.78
-58.90
-64.08
-68.21
-70.19
-69.35
-65.56
-59.24
-51.03
-41.59
-31.56
-21.54
-12.08
-3.58
3.81
10.29
16.25
22.03
27.65
32.77
36.92
39.81
41.50
42.38
42.88
43.27
43.53
43.46
42.90
41.87
40.52
39.06
37.67
36.46
35.47
34.69
34.09
33.49
32.71
31.59
30.08
28.29
26.41
24.57
22.75
20.78
18.50
15.93
13.32
10.98
9.15
7.84
6.76
5.50
3.73
1.39
-1.29
-3.91
-6.11
-7.77
-9.04
-10.33
-12.05
-14.37
-17.19
-20.21
-23.05
-25.59
-27.87
-30.10
-32.51
-35.29
-38.56
-42.40
-46.88
-51.86
-56.89
-61.15
-63.59
-63.33
-59.96
-53.69
-45.30
-35.79
-26.05
-16.61
-7.62
0.88
8.82
15.96
21.96
26.56
29.69
31.54
32.42
32.67
32.56
32.28
31.99
31.86
32.04
32.54
33.21
33.73
33.80
33.29
32.27
30.94
29.51
28.05
26.51
24.85
23.11
21.49
20.19
19.26
18.52
17.60
16.02
13.49
10.02
6.02
2.14
-1.01
-3.10
-4.25
-4.98
-5.93
-7.61
-10.12
-13.25
-16.48
-19.40
-21.84
-23.89
-25.88
-28.12
-30.81
-34.07
-38.05
-42.88
-48.55
-54.70
-60.48
-64.69
-66.15
-64.14
-58.75
-50.79
-41.46
-31.88
-22.76
-14.32
-6.50
0.78
7.50
13.59
18.94
23.59
27.63
31.15
34.14
36.46
37.93
38.41
37.90
36.67
35.16
33.89
33.22
33.17
33.46
33.55
33.11
32.09
30.77
29.58
28.73
28.13
27.45
26.38
24.79
22.89
20.92
19.07
17.37
15.69
13.86
11.84
9.65
7.32
4.87
2.32
-0.28
-2.76
-4.87
-6.40
-7.31
-7.88
-8.68
-10.38
-13.46
-17.96
-23.35
-28.70
-33.10
-36.04
-37.65
-38.62
-39.84
-41.99
-45.22
-49.23
-53.52
-57.52
-60.80
-62.95
-63.48
-61.85
-57.64
-50.83
-41.93
-31.89
-21.82
-12.62
-4.67
2.10
8.12
13.76
19.16
24.18
28.52
31.95
34.43
36.11
37.17
37.76
37.88
37.57
36.91
36.18
35.66
35.56
35.80
36.08
36.00
35.30
33.97
32.26
30.45
28.75
27.19
25.71
24.14
22.47
20.80
19.27
18.01
17.01
16.19
15.44
14.67
13.80
12.73
11.27
9.20
6.44
3.18
-0.14
-2.90
-4.68
-5.52
-5.89
-6.50
-7.88
-10.09
-12.79
-15.51
-17.97
-20.21
-22.46
-24.99
-27.86
-31.04
-34.48
-38.26
-42.48
-47.17
-52.06
-56.58
-59.97
-61.48
-60.63
-57.31
-51.71
-44.42
-36.20
-27.81
-19.81
-12.46
-5.74
0.52
6.43
11.93
16.82
20.93
24.21
26.75
28.67
30.01
30.75
30.79
30.21
29.28
28.44
28.06
28.25
28.71
28.92
28.44
27.16
25.49
24.14
23.75
24.44
25.69
26.55
26.17
24.31
21.45
18.53
16.33
15.13
14.53
13.81
12.40
10.22
7.71
5.45
3.89
3.02
2.34
1.24
-0.76
-3.70
-7.20
-10.70
-13.74
-16.14
-18.09
-19.96
-22.09
-24.57
-27.19
-29.65
-31.79
-33.75
-35.94
-38.79
-42.55
-47.14
-52.10
-56.76
-60.41
-62.44
-62.43
-60.15
-55.60
-49.07
-40.99
-32.00
-22.74
-13.76
-5.42
2.09
8.73
14.58
19.77
24.43
28.47
31.64
33.54
33.90
32.77
30.69
28.47
26.89
26.45
27.15
28.63
30.46
32.30
34.03
35.55
36.70
37.24
36.94
35.84
34.36
33.11
32.56
32.75
33.22
33.25
32.43
30.89
29.35
28.66
29.32
31.02
32.73
33.16
31.41
27.83
23.76
21.09
21.35
24.88
30.44
35.75
38.46
37.01
32.28
26.54
22.65
22.61
26.51
32.52
37.77
39.77
36.95
30.89
24.18
20.14
21.84
31.22
48.40
71.21
95.07
112.55
117.54
104.93
73.82
28.81
-20.33
-61.11
-82.10
-76.49
-45.56
5.02
63.88
118.85
160.17
182.49
185.10
170.19
148.33
113.33
66.79
10.20
-51.52
-108.92
-149.72
-163.36
-146.33
-105.24
-55.70
-12.67
13.44
21.79
18.96
12.47
4.10
-12.08
-45.16
-99.93
-167.53
-228.35
-259.50
-246.53
-191.95
-115.02
-43.70
-2.35
-3.12
-42.25
-105.91
-176.91
-240.39
-286.22
-309.04
-307.78
-285.95
-252.62
-220.33
-202.15
-206.51
-233.85
-276.52
-322.60
-361.24
-386.22
-396.95
-396.23
-387.76
-374.39
-357.89
-339.62
-320.79
-302.18
-283.11
-260.98
-231.72
-191.11
-136.98
-70.53
3.51
78.21
146.46
203.07
245.70
274.60
291.49
298.48
297.60
291.10
281.87
273.37
268.72
269.47
274.87
282.18
287.89
289.34
285.61
277.50
266.59
254.23
241.01
226.81
211.47
195.19
178.68
162.99
148.95
137.00
126.89
117.97
109.44
100.71
91.69
82.72
74.45
67.33
61.45
56.31
51.17
45.31
38.51
31.05
23.64
17.11
11.97
8.22
5.37
2.71
-0.50
-4.65
-9.68
-15.19
-20.46
-24.86
-28.08
-30.25
-31.81
-33.33
-35.18
-37.43
-39.95
-42.61
-45.47
-48.68
-52.25
-55.82
-58.52
-59.22
-56.99
-51.65
-43.84
-34.80
-25.79
-17.52
-10.02
-2.80
4.69
12.65
20.75
28.32
34.62
39.20
42.03
43.50
44.19
44.62
45.12
45.67
46.09
46.10
45.62
44.73
43.78
43.17
43.08
43.37
43.62
43.36
42.31
40.59
38.65
36.96
35.73
34.76
33.61
31.91
29.66
27.24
25.20
23.87
23.28
23.09
22.90
22.41
21.50
20.20
18.56
16.61
14.39
12.00
9.54
7.15
4.91
2.79
0.68
-1.63
-4.41
-7.86
-12.00
-16.48
-20.72
-24.12
-26.46
-28.05
-29.64
-32.01
-35.60
-40.37
-45.94
-51.80
-57.46
-62.44
-66.07
-67.57
-66.24
-61.85
-54.79
-46.04
-36.71
-27.73
-19.57
-12.27
-5.70
0.24
5.51
10.05
13.88
17.11
19.92
22.38
24.47
26.00
26.82
26.87
26.30
25.41
24.57
24.01
23.79
23.88
24.17
24.58
24.99
25.25
25.12
24.42
23.19
21.68
20.28
19.28
18.64
18.05
17.08
15.37
12.88
9.81
6.53
3.44
0.90
-0.86
-1.70
-1.75
-1.37
-1.05
-1.23
-2.13
-3.62
-5.48
-7.50
-9.65
-12.02
-14.69
-17.52
-20.32
-22.93
-25.36
-27.74
-30.22
-32.83
-35.46
-38.08
-40.79
-43.94
-47.88
-52.73
-58.24
-63.65
-67.92
-70.03
-69.26
-65.31
-58.42
-49.29
-38.92
-28.44
-18.85
-10.74
-4.14
1.37
6.47
11.79
17.57
23.61
29.26
33.78
36.62
37.75
37.60
36.89
36.23
35.88
35.77
35.68
35.58
35.57
35.86
36.54
37.32
37.74
37.39
36.25
34.68
33.26
32.51
32.49
32.76
32.59
31.32
28.72
25.16
21.39
18.24
16.19
15.23
14.88
14.55
13.88
12.99
12.30
12.15
12.47
12.71
12.24
10.65
8.08
5.17
2.71
1.28
0.97
1.42
2.07
2.52
2.45
1.65
-0.08
-2.68
-5.75
-8.79
-11.08
-12.16
-11.78
-10.35
-8.90
-8.60
-9.89
-12.24
-14.49
-15.01
-12.41
-5.88
4.21
16.30
28.13
38.14
45.97
51.86
56.62
60.82
65.06
69.79
75.39
82.06
90.56
101.51
114.47
128.99
142.03
153.41
165.74
180.22
192.56
195.99
187.81
166.89
136.53
102.41
69.19
37.04
8.71
-14.55
-29.41
-30.01
-10.53
31.08
89.72
153.09
205.32
232.84
228.81
195.58
141.96
78.49
14.49
-42.81
-87.03
-112.36
-114.95
-95.96
-62.37
-26.00
0.21
6.83
-9.00
-43.61
-89.93
-141.43
-194.93
-249.61
-304.54
-356.21
-397.01
-416.86
-406.85
-363.52
-291.93
-206.00
-124.57
-64.98
-36.77
-38.94
-62.41
-95.90
-131.71
-167.48
-203.12
-236.00
-258.37
-260.13
-235.11
-186.22
-126.25
-73.18
-42.72
-42.00
-67.90
-109.10
-150.42
-177.71
-181.71
-160.64
-120.59
-74.17
-36.35
-19.26
-27.80
-58.17
-99.48
-137.82
-161.29
-163.57
-145.29
-113.10
-77.14
-47.57
-30.91
-27.78
-32.71
-36.26
-29.09
-6.58
28.63
67.29
97.06
107.26
93.35
59.02
15.12
-23.77
-45.03
-42.80
-20.22
12.04
40.46
53.73
46.63
21.10
-14.54
-48.90
-71.23
-75.18
-61.09
-35.98
-10.70
4.32
3.15
-13.28
-37.38
-57.72
-63.64
-49.47
-17.05
24.45
61.61
81.68
77.24
48.86
5.52
-38.36
-68.09
-73.73
-53.50
-13.95
33.49
77.19
109.38
127.54
133.61
131.19
123.69
113.96
105.28
102.33
110.56
133.43
169.15
209.36
241.22
252.86
239.29
205.19
162.90
126.68
106.27
103.53
113.16
126.72
137.24
141.74
140.90
137.05
132.03
126.34
119.65
111.71
102.89
94.19
86.56
80.33
75.14
70.18
64.66
58.16
50.70
42.55
33.95
25.01
15.68
5.73
-5.08
-17.09
-30.65
-46.02
-63.22
-81.84
-101.07
-119.81
-137.05
-152.17
-165.30
-177.24
-189.29
-202.84
-218.88
-237.66
-258.61
-280.44
-301.40
-319.70
-333.81
-342.72
-346.01
-343.83
-336.76
-325.57
-311.09
-294.09
-275.22
-255.01
-233.86
-212.00
-189.47
-166.19
-142.11
-117.35
-92.23
-67.14
-42.21
-16.98
9.61
38.98
72.19
109.46
149.79
191.13
230.81
266.33
295.96
319.04
336.04
348.11
356.67
362.90
367.53
370.79
372.64
372.99
371.79
369.11
365.13
360.04
353.97
346.87
338.59
328.92
317.78
305.40
292.38
279.61
268.08
258.53
251.37
246.59
243.85
242.54
241.88
240.99
238.95
235.13
229.42
222.28
214.55
206.93
199.37
190.78
179.12
162.18
138.47
108.17
73.28
37.07
2.77
-27.79
-54.80
-80.05
-105.59
-132.25
-158.87
-182.82
-201.39
-213.31
-219.41
-222.12
-224.16
-227.29
-231.78
-236.73
-240.98
-243.78
-244.97
-244.73
-243.04
-239.57
-233.79
-225.37
-214.51
-202.02
-189.10
-176.93
-166.26
-157.27
-149.58
-142.44
-135.11
-127.12
-118.36
-109.07
-99.68
-90.59
-82.06
-74.19
-66.85
-59.81
-52.86
-45.89
-38.96
-32.36
-26.44
-21.55
-17.87
-15.38
-13.98
-13.47
-13.62
-14.17
-14.91
-15.69
-16.53
-17.65
-19.30
-21.57
-24.18
-26.55
-28.03
-28.33
-27.67
-26.77
-26.52
-27.63
-30.39
-34.67
-40.11
-46.26
-52.59
-58.44
-62.92
-65.02
-63.82
-58.88
-50.50
-39.70
-27.96
-16.67
-6.67
1.92
9.58
16.94
24.40
31.86
38.82
44.66
48.98
51.78
53.46
54.55
55.53
56.69
58.01
59.25
60.07
60.20
59.63
58.60
57.60
56.98
56.87
57.00
56.85
55.95
54.13
51.64
48.95
46.55
44.59
42.93
41.26
39.32
37.10
34.81
32.68
30.79
29.01
27.07
24.79
22.14
19.26
16.36
13.60
11.05
8.70
6.48
4.31
2.06
-0.46
-3.35
-6.63
-10.19
-13.89
-17.65
-21.57
-25.75
-30.18
-34.56
-38.42
-41.32
-43.25
-44.76
-46.77
-50.18
-55.32
-61.70
-68.11
-73.02
-75.20
-74.04
-69.62
-62.42
-53.14
-42.40
-30.84
-19.15
-8.08
1.70
9.85
16.34
21.59
26.11
30.26
34.09
37.37
39.78
41.19
41.75
41.80
41.72
41.74
41.85
41.95
41.93
41.84
41.80
41.95
42.29
42.54
42.35
41.36
39.52
37.04
34.36
31.85
29.74
27.97
26.37
24.74
22.95
21.00
18.87
16.54
14.08
11.52
8.99
6.52
4.05
1.38
-1.69
-5.16
-8.80
-12.18
-15.00
-17.20
-19.09
-21.17
-23.80
-27.04
-30.57
-33.96
-36.87
-39.22
-41.22
-43.28
-45.84
-49.27
-53.77
-59.29
-65.44
-71.49
-76.45
-79.24
-78.98
-75.24
-68.14
-58.38
-47.09
-35.48
-24.59
-14.97
-6.58
1.09
8.66
16.52
24.49
31.92
37.90
41.81
43.55
43.67
43.10
42.76
43.08
44.02
45.09
45.76
45.77
45.14
44.15
43.08
42.09
41.13
40.10
38.98
37.89
36.98
36.39
36.04
35.69
35.06
33.89
32.09
29.75
27.06
24.29
21.66
19.30
17.27
15.52
13.87
12.12
9.98
7.28
3.99
0.29
-3.49
-6.98
-9.87
-12.04
-13.66
-15.03
-16.54
-18.49
-20.95
-23.86
-27.01
-30.28
-33.64
-37.14
-40.94
-45.19
-50.04
-55.53
-61.58
-67.86
-73.83
-78.65
-81.38
-81.24
-77.82
-71.34
-62.55
-52.42
-41.91
-31.64
-21.87
-12.62
-3.86
4.36
11.89
18.58
24.33
29.20
33.35
36.91
39.95
42.41
44.21
45.35
45.96
46.38
46.95
47.81
48.74
49.21
48.56
46.50
43.29
39.73
36.77
35.03
34.60
34.96
35.40
35.32
34.50
33.07
31.35
29.57
27.74
25.76
23.51
21.10
18.79
16.93
15.70
14.95
14.28
13.12
11.12
8.30
5.04
1.90
-0.72
-2.77
-4.61
-6.76
-9.69
-13.60
-18.30
-23.26
-27.85
-31.55
-34.18
-35.94
-37.35
-39.01
-41.43
-44.86
-49.36
-54.75
-60.72
-66.78
-72.20
-76.11
-77.70
-76.40
-72.18
-65.44
-56.89
-47.28
-37.21
-27.14
-17.46
-8.50
-0.60
6.01
11.27
15.23
18.05
19.97
21.24
22.17
23.10
24.33
26.06
28.18
30.36
32.09
32.96
32.83
31.88
30.51
29.11
27.92
26.96
26.14
25.34
24.56
23.83
23.18
22.52
21.66
20.47
18.94
17.27
15.77
14.72
14.17
13.88
13.32
11.92
9.31
5.58
1.25
-2.90
-6.17
-8.22
-9.17
-9.50
-9.81
-10.58
-12.06
-14.31
-17.32
-20.99
-25.07
-29.17
-32.80
-35.59
-37.54
-39.15
-41.21
-44.55
-49.50
-55.45
-60.94
-64.27
-64.00
-59.61
-51.56
-40.94
-29.17
-17.29
-5.66
5.74
17.00
28.14
39.08
49.58
59.61
68.80
76.78
83.53
88.91
92.80
95.19
96.17
95.89
94.95
93.48
91.77
90.71
90.96
93.05
97.27
103.33
110.30
117.06
121.53
122.00
118.07
112.61
108.70
107.48
107.14
100.63
85.87
61.93
27.88
-11.09
-51.65
-90.82
-124.66
-147.34
-152.12
-134.00
-94.42
-42.24
8.61
43.43
52.73
35.20
-3.63
-55.39
-112.13
-167.91
-216.38
-248.44
-254.17
-226.64
-167.38
-88.73
-10.84
45.60
65.99
46.52
-6.14
-78.85
-155.61
-220.50
-259.45
-262.38
-226.30
-158.41
-76.42
-4.07
36.64
34.34
-6.51
-66.95
-120.75
-144.55
-126.84
-71.76
3.38
74.57
119.53
124.68
88.67
22.07
-56.33
-125.12
-166.43
-171.10
-141.28
-89.75
-36.10
-0.17
4.61
-24.28
-77.73
-138.36
-186.67
-207.62
-195.57
-155.47
-100.96
-49.17
-14.74
-5.02
-18.08
-44.34
-70.35
-83.79
-77.78
-52.83
-16.24
20.30
44.33
45.90
19.73
-34.19
-110.71
-200.43
-291.02
-369.09
-422.46
-442.36
-425.25
-373.94
-297.59
-209.99
-126.47
-59.92
-17.40
1.62
4.20
1.19
3.06
16.42
42.80
79.74
123.31
170.33
218.57
264.89
302.84
322.58
314.05
272.60
203.54
122.60
50.75
5.79
-5.43
10.33
36.93
57.42
62.38
53.24
39.46
31.89
36.61
52.67
74.57
96.72
116.86
136.66
159.38
187.13
219.51
254.08
288.33
321.27
353.78
387.57
423.48
460.10
493.39
517.62
527.01
517.92
490.54
449.22
401.46
355.51
317.85
291.25
274.57
263.89
254.54
242.88
227.28
208.04
186.56
164.39
142.59
121.79
102.51
85.64
72.26
63.35
58.98
57.62
55.94
49.23
32.34
0.79
-47.66
-111.53
-184.60
-255.86
-311.36
-337.57
-325.93
-276.62
-199.59
-112.37
-34.82
16.84
34.24
17.42
-27.46
-91.83
-167.40
-246.98
-323.85
-390.86
-440.64
-466.80
-465.60
-436.98
-384.41
-313.55
-230.83
-142.71
-55.71
23.21
86.97
129.09
145.03
133.39
96.49
39.95
-28.74
-101.66
-171.47
-231.94
-277.28
-301.75
-299.99
-268.63
-208.53
-126.36
-34.41
52.12
119.36
158.97
170.40
160.06
138.04
114.13
94.60
81.49
73.66
68.83
65.35
62.96
62.40
64.53
69.85
78.57
90.98
107.63
128.84
154.00
180.49
203.33
216.11
212.63
189.03
145.14
84.63
13.60
-61.43
-135.26
-204.42
-266.30
-317.90
-355.23
-374.10
-371.89
-349.40
-311.37
-265.41
-219.45
-179.18
-146.53
-119.92
-95.80
-70.66
-42.35
-10.05
26.54
67.92
114.39
164.61
214.13
255.06
277.78
274.32
241.47
182.21
104.65
19.28
-63.57
-134.90
-186.87
-212.75
-208.11
-173.36
-115.62
-48.00
14.17
58.85
81.35
84.98
77.91
68.58
61.94
58.80
57.57
56.73
56.32
57.46
60.98
66.24
71.23
73.72
72.59
68.42
62.89
57.69
53.57
49.97
45.64
39.65
31.98
23.66
16.21
10.80
7.78
6.65
6.58
6.89
7.21
7.39
7.39
7.58
9.12
14.32
26.23
47.60
79.44
119.79
163.65
203.83
232.83
244.80
236.73
208.68
163.07
103.94
36.90
-30.45
-88.34
-126.14
-135.55
-114.54
-69.96
-16.58
27.89
49.74
44.90
20.07
-11.17
-35.18
-44.28
-38.82
-25.10
-10.72
-0.79
3.62
4.23
3.57
3.51
4.93
8.32
14.14
22.49
32.76
43.22
51.57
55.51
53.34
43.91
26.52
0.94
-32.12
-70.35
-109.85
-146.09
-175.45
-196.62
-210.81
-220.59
-228.16
-233.95
-236.46
-233.38
-223.07
-205.66
-183.10
-158.30
-133.99
-111.88
-92.41
-75.20
-59.65
-45.44
-32.77
-22.18
-14.20
-9.12
-6.83
-6.96
-9.02
-12.49
-16.80
-21.17
-24.57
-25.96
-24.63
-20.55
-14.43
-7.46
-0.83
4.71
8.92
12.09
14.71
17.26
20.12
23.51
27.50
31.96
36.52
40.61
43.71
45.52
46.13
46.03
45.85
46.11
47.02
48.43
50.00
51.39
52.49
53.43
54.56
56.23
58.60
61.56
64.74
67.59
69.58
70.23
69.18
66.25
61.47
55.06
47.52
39.43
31.38
23.84
17.03
10.96
5.40
0.03
-5.38
-10.88
-16.36
-21.55
-26.20
-30.23
-33.78
-37.15
-40.66
-44.38
-48.01
-51.03
-52.91
-53.51
-53.20
-52.78
-53.09
-54.79
-58.06
-62.60
-67.72
-72.49
-75.94
-77.18
-75.66
-71.19
-64.10
-55.13
-45.15
-35.01
-25.24
-16.01
-7.27
1.10
9.07
16.44
22.93
28.31
32.61
36.12
39.34
42.70
46.41
50.30
53.96
56.96
59.03
60.24
60.90
61.65
63.29
66.73
72.61
80.79
90.01
98.01
102.22
100.71
93.09
80.56
65.42
49.95
35.48
22.17
9.37
-3.52
-16.43
-28.51
-38.71
-46.39
-51.82
-56.03
-60.26
-65.29
-71.00
-76.44
-80.28
-81.49
-79.87
-76.07
-71.32
-66.73
-62.88
-59.60
-56.31
-52.54
-48.34
-44.40
-41.75
-41.21
-43.03
-46.80
-51.65
-56.65
-61.03
-64.32
-66.12
-66.11
-63.98
-59.63
-53.30
-45.59
-37.26
-29.03
-21.29
-14.18
-7.63
-1.55
4.11
9.36
14.19
18.65
22.80
26.72
30.34
33.48
35.93
37.54
38.32
38.49
38.44
38.57
39.16
40.32
41.92
43.64
45.16
46.20
46.67
46.57
45.92
44.68
42.78
40.18
36.93
33.27
29.55
26.09
23.17
20.94
19.39
18.43
17.81
17.22
16.34
14.92
12.88
10.31
7.46
4.60
1.88
-0.61
-2.91
-5.10
-7.23
-9.34
-11.40
-13.35
-15.07
-16.45
-17.48
-18.31
-19.27
-20.78
-23.21
-26.78
-31.48
-37.15
-43.42
-49.74
-55.43
-59.66
-61.70
-61.08
-57.75
-52.11
-44.83
-36.66
-28.29
-20.26
-12.98
-6.77
-1.78
2.08
5.21
8.17
11.48
15.37
19.76
24.32
28.65
32.38
35.24
36.98
37.31
35.96
32.93
28.57
23.75
19.51
16.70
15.56
15.64
16.05
16.03
15.32
14.23
13.34
13.07
13.38
13.86
14.07
13.91
13.74
14.12
15.41
17.49
19.81
21.74
22.89
23.21
22.95
22.27
21.14
19.36
16.84
13.70
10.38
7.25
4.51
1.91
-1.01
-4.60
-8.94
-13.68
-18.33
-22.47
-25.97
-28.96
-31.68
-34.36
-37.16
-40.20
-43.67
-47.64
-52.05
-56.47
-60.15
-62.22
-62.03
-59.38
-54.64
-48.72
-42.76
-37.77
-34.41
-32.73
-32.25
-32.16
-31.65
-30.28
-28.22
-26.27
-25.57
-27.12
-31.34
-37.82
-45.50
-53.04
-59.37
-63.93
-66.72
-68.05
-68.14
-66.69
-62.58
-53.70
-37.22
-10.17
29.57
82.29
145.60
214.60
282.95
344.56
395.26
433.03
457.42
467.89
462.91
440.24
398.37
338.10
263.14
179.59
94.82
16.60
-47.08
-88.55
-101.77
-84.91
-42.77
12.90
65.99
101.31
109.59
89.70
47.14
-10.43
-76.98
-149.16
-224.19
-296.43
-355.71
-389.09
-385.74
-342.61
-267.45
-177.77
-95.62
-40.69
-24.75
-48.92
-104.58
-176.91
-249.02
-305.53
-334.69
-329.83
-290.28
-222.09
-138.00
-55.63
5.96
31.69
15.61
-36.25
-107.00
-173.48
-213.07
-210.69
-163.35
-81.12
15.80
102.65
157.04
165.50
127.66
56.62
-24.71
-90.66
-120.97
-107.20
-55.52
15.45
80.90
118.07
113.75
68.31
-4.49
-82.40
-142.21
-167.60
-154.45
-111.67
-57.97
-15.02
0.24
-18.75
-66.51
-127.60
-182.27
-213.15
-210.92
-177.37
-124.38
-70.37
-34.49
-30.17
-61.20
-120.23
-190.77
-252.28
-286.76
-284.79
-248.75
-191.91
-133.48
-91.78
-77.52
-90.77
-121.53
-154.00
-172.16
-164.58
-127.43
-65.18
10.20
81.81
132.34
149.59
131.40
87.78
38.62
6.85
9.58
50.66
118.98
192.69
248.31
271.13
260.51
229.78
199.83
190.20
211.44
261.77
328.26
392.08
435.67
448.48
430.47
391.68
348.58
318.32
312.32
332.04
368.02
403.76
422.85
416.14
385.64
343.57
307.02
290.86
302.21
338.21
387.81
435.95
469.26
480.24
469.45
444.43
415.96
393.54
381.62
378.57
378.24
373.44
358.71
331.70
292.69
243.19
185.24
121.88
57.78
-0.78
-47.63
-79.20
-96.74
-106.38
-116.91
-136.17
-168.09
-211.23
-259.78
-306.07
-343.43
-368.20
-380.31
-382.59
-379.22
-374.17
-370.00
-367.39
-365.42
-362.29
-356.26
-346.34
-332.61
-316.10
-298.31
-280.68
-264.20
-249.28
-235.80
-223.34
-211.33
-199.24
-186.68
-173.56
-160.13
-146.98
-134.91
-124.67
-116.66
-110.74
-106.14
-101.70
-96.19
-88.83
-79.60
-69.29
-59.13
-50.30
-43.37
-38.05
-33.46
-28.61
-22.96
-16.62
-10.20
-4.34
0.64
4.85
8.55
11.84
14.37
15.50
14.56
11.27
5.97
-0.47
-7.08
-13.09
-18.23
-22.72
-27.03
-31.70
-37.00
-42.87
-48.87
-54.20
-57.86
-58.93
-56.89
-51.87
-44.68
-36.50
-28.44
-21.15
-14.70
-8.75
-3.00
2.61
7.76
11.95
14.83
16.37
16.91
17.02
17.25
17.94
19.26
21.17
23.49
25.80
27.38
27.33
24.83
19.65
12.47
4.95
-0.78
-2.92
-0.75
5.16
13.17
21.40
28.44
33.75
37.55
40.35
42.51
44.11
45.03
45.25
45.09
45.13
46.05
48.25
51.58
55.25
58.02
58.67
56.40
51.23
43.97
35.86
28.10
21.41
15.86
10.97
6.08
0.71
-5.14
-11.05
-16.36
-20.47
-23.06
-24.04
-23.44
-21.36
-17.98
-13.79
-9.79
-7.22
-7.09
-9.56
-13.64
-17.37
-18.71
-16.43
-10.71
-2.95
5.00
11.72
16.85
20.92
24.87
29.32
34.20
38.89
42.54
44.53
44.68
43.29
40.84
37.81
34.43
30.70
26.49
21.76
16.75
11.84
7.52
4.08
1.56
-0.36
-2.10
-4.02
-6.21
-8.46
-10.41
-11.74
-12.38
-12.52
-12.59
-12.94
-13.70
-14.64
-15.27
-15.09
-13.95
-12.07
-10.04
-8.48
-7.72
-7.72
-8.15
-8.68
-9.19
-9.87
-11.08
-13.09
-15.89
-19.12
-22.19
-24.58
-25.98
-26.48
-26.43
-26.34
-26.63
-27.50
-28.96
-30.96
-33.42
-36.26
-39.20
-41.67
-42.89
-42.09
-38.80
-33.06
-25.43
-16.74
-7.87
0.48
7.92
14.29
19.64
24.16
28.07
31.57
34.73
37.49
39.71
41.35
42.49
43.34
44.07
44.65
44.85
44.37
43.04
41.02
38.69
36.57
35.04
34.21
33.83
33.47
32.67
31.16
28.98
26.48
24.10
22.20
20.79
19.64
18.39
16.84
14.97
12.98
11.03
9.14
7.15
4.86
2.32
-0.18
-2.21
-3.44
-3.86
-3.85
-3.94
-4.63
-6.08
-8.17
-10.58
-13.00
-15.32
-17.59
-19.98
-22.68
-25.72
-28.98
-32.35
-35.77
-39.35
-43.18
-47.19
-50.89
-53.53
-54.25
-52.53
-48.40
-42.45
-35.55
-28.48
-21.62
-15.02
-8.50
-1.93
4.62
10.98
16.97
22.46
27.36
31.57
34.98
37.50
39.16
40.06
40.36
40.17
39.51
38.37
36.82
35.09
33.53
32.44
31.89
31.68
31.42
30.76
29.51
27.77
25.86
24.17
22.92
22.07
21.36
20.43
19.10
17.42
15.66
14.14
12.93
11.88
10.63
8.85
6.47
3.69
0.88
-1.60
-3.61
-5.27
-6.81
-8.45
-10.25
-12.14
-14.04
-16.00
-18.14
-20.65
-23.58
-26.80
-30.01
-32.98
-35.66
-38.36
-41.55
-45.64
-50.63
-55.92
-60.46
-63.11
-63.07
-60.20
-55.03
-48.48
-41.48
-34.72
-28.37
-22.28
-16.17
-9.86
-3.43
2.82
8.50
13.31
17.13
20.04
22.18
23.70
24.66
25.03
24.91
24.52
24.24
24.45
25.32
26.75
28.35
29.70
30.52
30.77
30.52
29.95
29.16
28.19
27.07
25.90
24.76
23.68
22.54
21.12
19.16
16.54
13.29
9.64
5.86
2.14
-1.42
-4.87
-8.31
-11.81
-15.35
-18.87
-22.26
-25.39
-28.28
-30.94
-33.50
-36.07
-38.80
-41.82
-45.29
-49.16
-53.18
-56.83
-59.32
-59.97
-58.34
-54.45
-48.71
-41.69
-33.92
-25.73
-17.37
-9.01
-0.89
6.81
13.96
20.59
26.69
32.24
37.03
40.82
43.41
44.83
45.31
45.24
44.98
44.78
44.72
44.66
44.43
43.82
42.75
41.26
39.54
37.84
36.39
35.30
34.51
33.81
32.91
31.49
29.36
26.44
22.84
18.84
14.81
11.10
7.90
5.21
2.86
0.71
-1.35
-3.31
-5.16
-6.94
-8.87
-11.23
-14.22
-17.80
-21.66
-25.40
-28.73
-31.58
-34.18
-36.88
-39.93
-43.41
-47.26
-51.27
-55.22
-58.82
-61.69
-63.28
-63.00
-60.42
-55.47
-48.58
-40.50
-32.03
-23.76
-15.91
-8.39
-0.99
6.46
13.90
21.07
27.56
33.02
37.20
40.07
41.79
42.55
42.57
41.98
40.90
39.45
37.93
36.69
36.04
36.11
36.70
37.36
37.64
37.28
36.27
34.84
33.21
31.47
29.61
27.61
25.53
23.57
21.92
20.61
19.55
18.44
17.05
15.27
13.16
10.89
8.56
6.22
3.81
1.31
-1.24
-3.80
-6.34
-8.97
-11.84
-15.07
-18.61
-22.28
-25.82
-29.08
-32.12
-35.22
-38.68
-42.69
-47.25
-52.16
-57.17
-61.96
-66.19
-69.35
-70.82
-70.00
-66.41
-60.04
-51.38
-41.33
-30.97
-21.14
-12.30
-4.43
2.68
9.21
15.11
20.12
23.99
26.60
28.21
29.20
30.00
30.84
31.69
32.33
32.51
32.14
31.34
30.41
29.63
29.12
28.70
28.00
26.64
24.37
21.29
17.77
14.31
11.38
9.25
7.97
7.34
7.04
6.66
5.82
4.28
2.07
-0.64
-3.56
-6.43
-9.13
-11.60
-13.74
-15.37
-16.30
-16.50
-16.29
-16.28
-17.10
-19.19
-22.51
-26.67
-31.15
-35.51
-39.52
-43.01
-45.80
-47.47
-47.55
-45.62
-41.53
-35.46
-27.86
-19.40
-10.76
-2.54
4.88
11.29
16.76
21.44
25.44
28.79
31.41
33.21
34.27
34.83
35.18
35.55
35.88
35.95
35.44
34.17
32.23
30.00
27.94
26.39
25.40
24.78
24.23
23.53
22.63
21.68
20.82
20.08
19.29
18.19
16.62
14.66
12.58
10.77
9.46
8.66
8.10
7.36
6.12
4.27
1.90
-0.66
-3.05
-5.00
-6.40
-7.39
-8.21
-9.15
-10.40
-12.02
-13.99
-16.25
-18.83
-21.80
-25.23
-29.06
-33.08
-36.94
-40.24
-42.61
-43.79
-43.62
-42.03
-38.99
-34.50
-28.69
-21.75
-13.95
-5.58
3.10
11.89
20.61
29.06
37.02
44.24
50.51
55.72
59.85
62.97
65.14
66.51
67.20
67.42
67.29
66.87
66.03
64.57
62.26
59.12
55.34
51.25
47.10
42.95
38.62
33.79
28.24
21.94
15.07
7.90
0.65
-6.64
-14.06
-21.76
-29.74
-37.80
-45.50
-52.30
-57.71
-61.50
-63.72
-64.71
-64.95
-64.82
-64.45
-63.74
-62.39
-60.24
-57.30
-53.83
-50.22
-46.86
-43.99
-41.76
-40.24
-39.50
-39.50
-39.99
-40.48
-40.27
-38.71
-35.47
-30.68
-24.80
-18.43
-12.07
-6.07
-0.63
4.08
7.94
10.92
13.22
15.26
17.58
20.54
24.17
28.10
31.80
34.80
36.90
38.31
39.50
40.90
42.71
44.76
46.59
47.71
47.84
46.99
45.45
43.50
41.30
38.76
35.66
31.87
27.39
22.34
16.87
11.02
4.70
-2.23
-9.81
-17.96
-26.42
-34.89
-43.01
-50.35
-56.44
-60.81
-63.19
-63.60
-62.52
-60.78
-59.31
-58.89
-59.83
-61.88
-64.41
-66.73
-68.43
-69.69
-71.17
-73.67
-77.72
-83.24
-89.52
-95.60
-100.59
-103.94
-105.51
-105.35
-103.44
-99.64
-93.71
-85.47
-74.99
-62.62
-48.96
-34.78
-20.80
-7.58
4.63
15.91
26.60
37.08
47.55
57.96
67.96
77.09
84.88
91.00
95.31
97.78
98.55
97.78
95.65
92.33
87.98
82.82
77.13
71.22
65.38
59.78
54.39
49.08
43.68
38.01
31.98
25.45
18.25
10.17
1.09
-8.84
-19.10
-28.80
-36.84
-42.17
-44.14
-42.66
-38.17
-31.47
-23.53
-15.25
-7.39
-0.67
4.33
7.07
7.31
5.22
1.40
-3.23
-7.73
-11.40
-13.94
-15.34
-15.74
-15.24
-13.88
-11.76
-9.05
-6.02
-2.94
-0.01
2.76
5.41
7.93
10.15
11.77
12.51
12.31
11.45
10.39
9.73
9.93
11.17
13.31
15.96
18.63
20.87
22.39
23.07
22.94
22.02
20.33
17.79
14.34
9.95
4.78
-0.81
-6.24
-10.78
-13.79
-14.96
-14.32
-12.36
-9.67
-6.77
-3.92
-1.08
1.94
5.28
9.03
13.19
17.78
22.79
28.09
33.43
38.43
42.77
46.40
49.56
52.69
56.18
60.20
64.63
69.12
73.27
76.67
78.92
79.69
78.75
76.02
71.69
66.09
59.63
52.51
44.74
36.12
26.42
15.54
3.64
-8.79
-21.07
-32.39
-41.97
-49.22
-53.82
-55.79
-55.51
-53.70
-51.38
-49.69
-49.71
-52.06
-56.73
-62.96
-69.48
-74.82
-77.78
-77.70
-74.57
-68.84
-61.24
-52.53
-43.35
-34.33
-26.00
-18.83
-13.15
-9.14
-6.75
-5.79
-6.06
-7.41
-9.88
-13.58
-18.64
-25.04
-32.54
-40.61
-48.48
-55.15
-59.54
-60.71
-58.05
-51.53
-41.74
-29.77
-16.93
-4.24
7.76
19.17
30.38
41.74
53.11
63.87
73.09
79.94
84.09
85.76
85.65
84.61
83.39
82.63
82.80
84.35
87.53
92.19
97.51
102.06
104.03
101.93
94.98
83.51
68.90
53.18
38.61
27.17
20.21
18.24
20.85
26.90
34.82
43.02
50.26
55.77
59.24
60.59
59.77
56.66
51.05
42.83
32.16
19.50
5.66
-8.40
-21.80
-33.80
-43.96
-51.98
-57.66
-60.90
-61.72
-60.46
-57.67
-54.07
-50.23
-46.37
-42.42
-38.14
-33.52
-28.79
-24.41
-20.89
-18.49
-17.25
-17.01
-17.58
-18.82
-20.61
-22.84
-25.36
-28.04
-30.81
-33.66
-36.57
-39.55
-42.53
-45.45
-48.27
-50.95
-53.44
-55.68
-57.61
-59.25
-60.66
-62.06
-63.72
-65.96
-69.02
-72.87
-77.12
-81.00
-83.47
-83.49
-80.41
-74.17
-65.27
-54.59
-42.99
-31.16
-19.56
-8.48
1.81
11.03
18.96
25.52
30.83
35.08
38.45
41.01
42.65
43.25
42.83
41.62
40.12
38.94
38.52
39.01
40.19
41.55
42.55
42.90
42.61
41.97
41.34
40.88
40.52
39.97
38.82
36.79
33.81
30.11
26.15
22.46
19.45
17.24
15.66
14.41
13.16
11.73
10.00
7.88
5.18
1.74
-2.47
-7.17
-11.84
-15.89
-19.02
-21.33
-23.28
-25.43
-28.13
-31.37
-34.86
-38.23
-41.22
-43.90
-46.60
-49.78
-53.78
-58.57
-63.67
-68.20
-71.14
-71.73
-69.64
-65.05
-58.49
-50.57
-41.80
-32.58
-23.28
-14.34
-6.22
0.76
6.49
11.16
15.17
18.96
22.90
27.10
31.44
35.60
39.13
41.70
43.14
43.60
43.45
43.09
42.73
42.29
41.57
40.40
38.89
37.36
36.16
35.51
35.28
35.19
34.97
34.50
33.95
33.53
33.33
33.13
32.46
30.84
28.16
24.70
21.11
18.00
15.63
13.71
11.56
8.46
4.01
-1.61
-7.86
-14.04
-19.70
-24.82
-29.75
-35.05
-41.17
-48.29
-56.16
-64.14
-71.39
-77.01
-80.32
-81.05
-79.32
-75.53
-70.17
-63.75
-56.67
-49.29
-42.00
-35.14
-28.93
-23.34
-18.11
-12.77
-6.91
-0.30
6.89
14.18
20.97
26.67
30.98
33.89
35.69
36.84
37.89
39.27
41.25
43.91
47.09
50.46
53.48
55.60
56.33
55.48
53.24
50.16
47.02
44.46
42.74
41.62
40.42
38.31
34.66
29.29
22.60
15.40
8.50
2.47
-2.57
-6.91
-10.99
-15.21
-19.69
-24.37
-29.09
-33.72
-38.30
-42.91
-47.59
-52.31
-56.85
-60.97
-64.30
-66.44
-66.95
-65.42
-61.63
-55.68
-47.98
-39.18
-30.00
-21.02
-12.60
-4.96
1.86
7.86
13.07
17.54
21.29
24.32
26.58
28.01
28.69
28.82
28.77
28.86
29.27
29.94
30.61
30.99
30.92
30.40
29.62
28.81
28.11
27.51
26.83
25.79
24.10
21.61
18.30
14.34
10.00
5.53
1.08
-3.28
-7.55
-11.66
-15.44
-18.71
-21.38
-23.47
-25.15
-26.62
-28.17
-30.01
-32.33
-35.30
-38.98
-43.30
-48.04
-52.80
-57.04
-60.08
-61.19
-59.78
-55.52
-48.51
-39.29
-28.76
-17.89
-7.48
2.00
10.32
17.39
23.19
27.71
31.06
33.43
35.05
36.13
36.78
37.01
36.85
36.38
35.79
35.22
34.77
34.42
34.09
33.73
33.27
32.67
31.80
30.57
28.91
26.90
24.76
22.67
20.75
18.91
16.92
14.55
11.68
8.35
4.85
1.44
-1.69
-4.59
-7.48
-10.63
-14.08
-17.67
-21.03
-23.83
-25.98
-27.78
-29.78
-32.56
-36.52
-41.65
-47.60
-53.72
-59.22
-63.29
-65.20
-64.46
-60.87
-54.59
-46.04
-35.90
-24.90
-13.81
-3.31
6.10
14.16
20.90
26.52
31.28
35.32
38.55
40.79
41.92
42.10
41.74
41.35
41.34
41.77
42.39
42.83
42.77
42.14
41.02
39.62
38.03
36.19
33.98
31.27
28.13
24.80
21.63
18.95
16.86
15.22
13.69
11.91
9.65
6.99
4.15
1.38
-1.18
-3.62
-6.21
-9.15
-12.49
-16.15
-19.96
-23.78
-27.57
-31.33
-35.14
-39.09
-43.29
-47.88
-52.94
-58.27
-63.39
-67.52
-69.83
-69.69
-66.85
-61.46
-53.89
-44.62
-34.10
-22.82
-11.36
-0.43
9.29
17.29
23.37
27.61
30.31
31.85
32.55
32.61
32.19
31.49
30.75
30.23
30.05
30.20
30.51
30.76
30.82
30.68
30.40
30.05
29.67
29.19
28.57
27.82
26.97
26.05
24.98
23.56
21.61
19.11
16.23
13.34
10.72
8.48
6.45
4.30
1.71
-1.51
-5.37
-9.76
-14.40
-18.99
-23.15
-26.50
-28.89
-30.45
-31.68
-33.28
-35.95
-39.96
-45.05
-50.36
-54.65
-56.73
-55.81
-51.72
-44.89
-36.21
-26.64
-17.09
-8.22
-0.47
5.98
11.21
15.53
19.44
23.36
27.46
31.49
34.84
36.88
37.22
36.02
33.86
31.47
29.47
28.14
27.44
27.23
27.35
27.71
28.23
28.76
28.99
28.65
27.56
25.76
23.52
21.17
18.92
16.85
14.86
12.74
10.38
7.79
5.07
2.35
-0.37
-3.19
-6.25
-9.54
-12.91
-16.07
-18.82
-21.13
-23.21
-25.39
-28.02
-31.30
-35.26
-39.74
-44.38
-48.62
-51.73
-52.92
-51.66
-47.82
-41.84
-34.56
-26.91
-19.59
-12.87
-6.64
-0.58
5.52
11.65
17.49
22.61
26.62
29.39
31.02
31.86
32.29
32.60
32.87
33.02
32.90
32.37
31.45
30.26
28.98
27.77
26.68
25.61
24.40
22.85
20.89
18.54
15.98
13.39
10.88
8.38
5.72
2.77
-0.39
-3.46
-6.03
-7.79
-8.71
-9.10
-9.47
-10.22
-11.50
-13.15
-14.84
-16.30
-17.49
-18.60
-19.99
-22.08
-25.18
-29.37
-34.39
-39.59
-44.04
-46.72
-46.91
-44.37
-39.44
-32.86
-25.58
-18.33
-11.60
-5.51
0.06
5.25
10.22
14.99
19.46
23.47
26.78
29.20
30.61
31.02
30.55
29.48
28.18
26.97
26.07
25.56
25.33
25.24
25.22
25.26
25.48
25.91
26.48
26.92
26.91
26.21
24.79
22.87
20.74
18.63
16.55
14.24
11.41
7.90
3.89
-0.12
-3.59
-6.19
-8.04
-9.75
-12.02
-15.29
-19.48
-24.03
-28.18
-31.49
-34.02
-36.31
-39.06
-42.80
-47.56
-52.89
-58.05
-62.16
-64.52
-64.61
-62.25
-57.56
-50.91
-42.78
-33.70
-24.12
-14.47
-5.21
3.23
10.50
16.46
21.28
25.26
28.68
31.59
33.82
35.13
35.43
34.91
34.01
33.17
32.72
32.76
33.17
33.81
34.51
35.16
35.65
35.82
35.52
34.65
33.15
31.06
28.51
25.67
22.74
19.89
17.16
14.45
11.56
8.31
4.70
0.88
-2.90
-6.35
-9.32
-11.84
-14.08
-16.28
-18.70
-21.49
-24.64
-27.98
-31.32
-34.49
-37.64
-41.08
-45.21
-50.12
-55.43
-60.23
-63.40
-64.07
-61.84
-56.94
-49.96
-41.54
-32.25
-22.52
-12.72
-3.28
5.37
12.85
18.96
23.72
27.28
29.90
31.84
33.33
34.51
35.37
35.88
35.92
35.44
34.46
33.09
31.50
29.93
28.54
27.41
26.58
26.02
25.64
25.40
25.21
24.99
24.55
23.65
22.07
19.72
16.74
13.47
10.29
7.40
4.72
1.97
-1.18
-4.83
-8.81
-12.77
-16.39
-19.55
-22.39
-25.23
-28.28
-31.66
-35.38
-39.42
-43.81
-48.49
-53.21
-57.32
-59.85
-59.78
-56.47
-49.99
-41.12
-31.04
-20.94
-11.54
-3.00
4.90
12.44
19.67
26.34
32.05
36.50
39.70
41.90
43.53
44.90
46.11
47.12
47.83
48.31
48.74
49.44
50.63
52.36
54.41
56.38
57.87
58.60
58.53
57.79
56.62
55.17
53.42
51.16
48.10
43.98
38.75
32.57
25.81
18.86
11.96
5.09
-1.96
-9.45
-17.42
-25.62
-33.48
-40.36
-45.73
-49.38
-51.49
-52.57
-53.36
-54.70
-57.26
-61.43
-67.13
-73.81
-80.47
-85.97
-89.28
-89.72
-87.10
-81.72
-74.12
-64.96
-54.83
-44.09
-32.96
-21.57
-10.01
1.43
12.33
22.10
30.17
36.20
40.10
42.03
42.36
41.53
39.97
38.06
36.10
34.35
32.99
32.16
31.84
31.89
31.98
31.72
30.78
29.04
26.71
24.20
22.00
20.42
19.47
18.85
18.11
16.88
14.95
12.30
9.03
5.27
1.19
-2.98
-6.96
-10.47
-13.35
-15.63
-17.56
-19.44
-21.52
-23.87
-26.42
-29.01
-31.58
-34.14
-36.87
-39.93
-43.37
-47.09
-50.83
-54.10
-56.30
-56.71
-54.70
-49.96
-42.59
-33.23
-22.84
-12.44
-2.80
5.67
12.93
19.14
24.51
29.17
33.18
36.62
39.51
41.92
43.87
45.30
46.13
46.29
45.76
44.65
43.14
41.51
40.01
38.88
38.15
37.66
37.07
36.01
34.26
31.86
29.13
26.49
24.32
22.71
21.47
20.21
18.50
16.06
12.85
9.01
4.80
0.48
-3.75
-7.75
-11.43
-14.77
-17.82
-20.66
-23.43
-26.32
-29.52
-33.14
-37.17
-41.41
-45.60
-49.53
-53.12
-56.52
-59.88
-63.27
-66.40
-68.64
-69.07
-66.91
-61.73
-53.71
-43.56
-32.26
-20.79
-9.87
0.14
9.11
16.99
23.69
29.02
32.87
35.30
36.67
37.56
38.60
40.16
42.30
44.64
46.56
47.51
47.19
45.70
43.43
40.91
38.50
36.35
34.42
32.62
30.99
29.69
28.92
28.78
29.12
29.55
29.58
28.78
26.98
24.26
20.92
17.33
13.75
10.28
6.82
3.11
-1.10
-5.86
-11.07
-16.49
-21.92
-27.32
-32.79
-38.44
-44.21
-49.85
-55.01
-59.50
-63.45
-67.29
-71.56
-76.60
-82.32
-88.15
-93.24
-96.60
-97.44
-95.31
-90.20
-82.53
-73.08
-62.73
-52.28
-42.29
-32.99
-24.43
-16.53
-9.15
-2.15
4.71
11.69
18.98
26.64
34.51
42.30
49.65
56.26
61.96
66.69
70.53
73.65
76.27
78.65
80.91
83.04
84.77
85.61
85.03
82.53
77.79
70.73
61.57
50.77
38.94
26.77
14.80
3.40
-7.26
-17.10
-26.01
-33.75
-40.00
-44.47
-47.05
-47.93
-47.56
-46.49
-45.16
-43.79
-42.39
-40.84
-39.16
-37.52
-36.24
-35.53
-35.38
-35.48
-35.36
-34.57
-32.82
-29.99
-25.94
-20.40
-12.98
-3.44
8.03
20.56
32.78
43.17
50.58
54.54
55.29
53.59
50.38
46.53
42.60
38.87
35.21
31.25
26.54
20.73
13.85
6.35
-1.02
-7.43
-12.29
-15.39
-16.90
-17.14
-16.43
-14.98
-12.86
-10.19
-7.23
-4.42
-2.24
-1.02
-0.79
-1.26
-2.02
-2.73
-3.24
-3.62
-4.00
-4.47
-4.96
-5.39
-5.76
-6.21
-6.98
-8.28
-10.14
-12.39
-14.80
-17.26
-19.87
-23.01
-27.14
-32.56
-39.17
-46.29
-52.80
-57.44
-59.21
-57.68
-53.14
-46.37
-38.25
-29.55
-20.73
-11.99
-3.55
4.37
11.51
17.67
22.91
27.46
31.70
35.90
40.16
44.28
47.97
50.91
53.00
54.37
55.27
55.95
56.47
56.62
56.08
54.60
52.24
49.42
46.74
44.73
43.48
42.64
41.57
39.79
37.19
34.16
31.30
29.11
27.71
26.82
25.92
24.47
22.15
18.82
14.44
9.04
2.64
-4.68
-12.67
-21.00
-29.30
-37.32
-44.95
-52.26
-59.46
-66.71
-74.03
-81.14
-87.51
-92.45
-95.35
-95.87
-93.97
-89.86
-83.90
-76.47
-68.00
-58.91
-49.62
-40.42
-31.46
-22.67
-13.94
-5.34
2.86
10.17
16.10
20.40
23.12
24.58
25.13
25.06
24.55
23.74
22.79
21.83
20.95
20.08
19.10
17.93
16.59
15.34
14.50
14.39
15.18
16.89
19.26
21.91
24.43
26.50
27.97
28.88
29.31
29.28
28.66
27.16
24.47
20.45
15.18
8.97
2.28
-4.47
-10.94
-16.87
-22.09
-26.47
-29.93
-32.49
-34.31
-35.70
-37.03
-38.56
-40.25
-41.67
-42.04
-40.52
-36.55
-30.20
-22.12
-13.34
-4.85
2.82
9.66
16.08
22.51
29.12
35.79
42.13
47.72
52.27
55.67
57.95
59.18
59.43
58.71
57.10
54.73
51.87
48.84
45.97
43.43
41.22
39.14
37.00
34.68
32.29
30.04
28.17
26.71
25.49
24.18
22.44
20.06
17.03
13.51
9.75
6.00
2.42
-0.91
-4.05
-7.15
-10.30
-13.48
-16.60
-19.57
-22.39
-25.27
-28.53
-32.47
-37.20
-42.58
-48.18
-53.47
-57.92
-61.00
-62.27
-61.36
-58.07
-52.46
-44.88
-35.91
-26.18
-16.29
-6.63
2.55
11.07
18.78
25.51
31.02
35.08
37.55
38.49
38.20
37.18
36.10
35.49
35.63
36.45
37.54
38.40
38.56
37.82
36.19
33.85
30.99
27.81
24.46
21.09
17.91
15.12
12.80
10.86
9.00
6.85
4.17
0.98
-2.48
-5.86
-8.98
-11.88
-14.81
-18.06
-21.83
-26.06
-30.58
-35.07
-39.29
-43.10
-46.55
-49.87
-53.40
-57.37
-61.72
-66.00
-69.30
-70.66
-69.37
-65.25
-58.74
-50.63
-41.73
-32.63
-23.55
-14.60
-5.83
2.59
10.42
17.47
23.70
29.17
33.95
38.04
41.35
43.75
45.18
45.71
45.58
45.16
44.85
44.96
45.64
46.79
48.08
49.03
49.24
48.47
46.78
44.44
41.77
39.04
36.34
33.63
30.85
28.00
25.14
22.35
19.68
17.05
14.27
11.15
7.61
3.78
-0.04
-3.50
-6.43
-8.93
-11.35
-14.21
-17.86
-22.35
-27.39
-32.47
-37.04
-40.81
-43.80
-46.33
-48.97
-52.32
-56.78
-62.35
-68.56
-74.57
-79.28
-81.66
-80.99
-77.00
-69.88
-60.31
-49.20
-37.57
-26.26
-15.78
-6.27
2.43
10.55
18.25
25.47
32.04
37.68
42.22
45.56
47.71
48.75
48.83
48.20
47.25
46.36
45.88
45.96
46.54
47.30
47.85
47.77
46.85
45.08
42.68
40.05
37.58
35.56
34.02
32.83
31.69
30.31
28.47
26.12
23.35
20.33
17.32
14.53
12.06
9.78
7.44
4.79
1.72
-1.60
-4.86
-7.79
-10.35
-12.74
-15.32
-18.37
-21.92
-25.76
-29.61
-33.26
-36.68
-39.99
-43.35
-46.85
-50.53
-54.43
-58.65
-63.27
-68.14
-72.80
-76.45
-78.13
-77.07
-72.95
-66.08
-57.25
-47.47
-37.59
-28.17
-19.31
-10.87
-2.66
5.37
13.06
20.05
25.98
30.62
34.02
36.44
38.25
39.74
40.97
41.87
42.29
42.18
41.69
41.08
40.66
40.53
40.60
40.61
40.24
39.33
37.88
36.01
33.84
31.46
28.86
26.06
23.16
20.28
17.56
15.03
12.61
10.20
7.68
5.04
2.35
-0.36
-3.07
-5.83
-8.74
-11.89
-15.34
-19.11
-23.15
-27.35
-31.57
-35.65
-39.41
-42.78
-45.70
-48.25
-50.56
-52.88
-55.55
-58.86
-63.02
-67.94
-73.18
-77.88
-80.95
-81.38
-78.48
-72.13
-62.84
-51.55
-39.41
-27.43
-16.29
-6.24
2.76
10.95
18.50
25.39
31.53
36.70
40.79
43.77
45.76
46.91
47.36
47.31
46.96
46.61
46.50
46.75
47.29
47.84
48.10
47.84
47.01
45.63
43.85
41.79
39.57
37.30
35.14
33.17
31.37
29.64
27.79
25.66
23.18
20.37
17.34
14.20
11.00
7.77
4.49
1.17
-2.10
-5.16
-7.81
-9.95
-11.65
-13.23
-15.18
-17.95
-21.70
-26.18
-30.82
-35.01
-38.38
-41.04
-43.50
-46.43
-50.34
-55.39
-61.23
-67.20
-72.38
-75.85
-76.88
-75.06
-70.38
-63.24
-54.29
-44.29
-33.94
-23.78
-14.09
-5.02
3.35
11.01
17.89
23.92
29.06
33.30
36.64
39.14
40.87
41.84
42.15
41.92
41.30
40.47
39.55
38.57
37.57
36.58
35.69
34.96
34.36
33.70
32.69
31.07
28.78
26.03
23.19
20.54
18.17
15.93
13.56
10.94
8.07
5.16
2.40
-0.07
-2.35
-4.62
-7.15
-10.07
-13.38
-16.97
-20.62
-24.13
-27.40
-30.48
-33.54
-36.85
-40.65
-44.97
-49.64
-54.31
-58.53
-61.87
-63.93
-64.36
-62.84
-59.14
-53.27
-45.51
-36.56
-27.28
-18.54
-10.86
-4.35
1.22
6.15
10.51
14.04
16.32
17.09
16.55
15.38
14.49
14.62
15.98
18.20
20.55
22.33
23.22
23.30
22.96
22.65
22.62
22.92
23.34
23.56
23.31
22.49
21.12
19.34
17.27
14.92
12.21
9.05
5.51
1.83
-1.59
-4.45
-6.63
-8.34
-9.94
-11.85
-14.32
-17.43
-21.16
-25.43
-30.14
-35.17
-40.29
-45.08
-48.99
-51.38
-51.62
-49.28
-44.22
-36.73
-27.44
-17.22
-7.01
2.42
10.55
17.14
22.15
25.64
27.69
28.40
27.93
26.52
24.50
22.24
20.11
18.39
17.29
16.83
16.94
17.38
17.84
18.04
17.69
16.61
14.67
11.87
8.33
4.39
0.50
-2.88
-5.43
-7.19
-8.54
-10.05
-12.16
-14.96
-18.03
-20.71
-22.39
-22.90
-22.62
-22.35
-22.93
-24.84
-28.04
-31.86
-35.35
-37.51
-37.61
-35.34
-30.79
-24.26
-16.21
-7.08
2.70
12.72
22.54
31.75
40.00
47.11
53.03
57.88
61.81
64.89
67.14
68.50
68.98
68.62
67.64
66.25
64.71
63.09
61.36
59.37
56.97
54.07
50.70
47.02
43.15
39.18
35.09
30.76
26.06
20.83
14.97
8.47
1.44
-5.90
-13.27
-20.34
-26.90
-32.80
-38.11
-42.98
-47.70
-52.63
-58.17
-64.56
-71.73
-79.11
-85.67
-90.17
-91.57
-89.41
-83.90
-75.86
-66.26
-55.97
-45.50
-35.03
-24.56
-14.04
-3.52
6.91
17.10
26.85
35.95
44.05
50.80
55.86
59.05
60.43
60.35
59.36
58.10
57.04
56.45
56.25
56.12
55.69
54.59
52.68
50.04
46.91
43.61
40.39
37.27
34.08
30.53
26.47
21.98
17.44
13.31
9.87
7.00
4.24
0.98
-3.12
-8.04
-13.36
-18.61
-23.48
-28.02
-32.54
-37.42
-42.96
-49.20
-55.93
-62.69
-68.85
-73.63
-76.24
-76.02
-72.62
-66.06
-56.79
-45.54
-33.20
-20.63
-8.48
2.85
13.25
22.88
31.94
40.67
49.08
56.99
63.99
69.67
73.68
75.89
76.46
75.73
74.16
72.15
69.98
67.90
66.09
64.70
63.86
63.54
63.49
63.32
62.65
61.26
59.13
56.46
53.50
50.47
47.47
44.55
41.74
39.07
36.51
33.98
31.37
28.60
25.71
22.84
20.13
17.61
15.16
12.61
9.84
6.84
3.64
0.23
-3.49
-7.67
-12.31
-17.21
-21.95
-26.11
-29.49
-32.20
-34.69
-37.48
-41.01
-45.53
-51.09
-57.68
-65.19
-73.42
-81.81
-89.44
-95.09
-97.58
-96.14
-90.72
-82.08
-71.42
-60.03
-48.84
-38.23
-28.10
-18.18
-8.27
1.46
10.56
18.46
24.69
29.05
31.65
32.87
33.14
32.83
32.17
31.20
30.00
28.67
27.43
26.56
26.23
26.43
26.92
27.40
27.57
27.31
26.63
25.68
24.56
23.32
21.83
19.93
17.45
14.32
10.63
6.54
2.33
-1.87
-5.99
-10.11
-14.32
-18.60
-22.78
-26.55
-29.63
-31.94
-33.67
-35.28
-37.17
-39.63
-42.67
-46.10
-49.63
-53.08
-56.47
-60.05
-64.16
-69.06
-74.73
-80.67
-85.99
-89.60
-90.54
-88.28
-82.86
-74.77
-64.77
-53.61
-41.87
-29.99
-18.31
-7.08
3.45
13.14
21.87
29.62
36.41
42.23
47.04
50.73
53.13
54.13
53.70
52.00
49.41
46.37
43.32
40.55
38.19
36.28
34.86
33.98
33.65
33.68
33.71
33.25
31.98
29.81
27.04
24.18
21.66
19.70
18.13
16.57
14.60
11.92
8.49
4.52
0.34
-3.72
-7.47
-10.94
-14.24
-17.60
-21.16
-24.92
-28.72
-32.48
-36.15
-39.81
-43.53
-47.19
-50.51
-53.22
-55.23
-56.72
-58.04
-59.41
-60.55
-60.74
-59.01
-54.56
-47.19
-37.37
-26.15
-14.69
-3.99
5.38
13.23
19.71
25.08
29.55
33.25
36.20
38.38
39.80
40.54
40.74
40.49
39.86
38.89
37.59
36.01
34.23
32.32
30.31
28.18
25.91
23.46
20.90
18.29
15.74
13.42
11.52
10.26
9.75
9.95
10.58
11.20
11.34
10.67
9.01
6.34
2.76
-1.68
-6.92
-12.86
-19.27
-25.78
-31.91
-37.12
-41.00
-43.34
-44.24
-44.03
-43.16
-41.90
-40.27
-38.00
-34.75
-30.40
-25.21
-19.80
-14.94
-11.18
-8.65
-7.11
-6.02
-4.86
-3.21
-0.76
2.62
6.91
11.96
17.37
22.66
27.34
31.03
33.57
35.00
35.45
35.09
34.04
32.40
30.33
28.00
25.67
23.60
22.04
21.13
20.93
21.32
22.06
22.83
23.28
23.12
22.14
20.27
17.63
14.43
11.01
7.64
4.52
1.72
-0.81
-3.10
-5.20
-7.17
-9.06
-10.99
-13.00
-15.08
-17.05
-18.70
-19.93
-20.82
-21.72
-23.05
-25.16
-28.15
-31.86
-35.90
-39.88
-43.57
-46.98
-50.31
-53.77
-57.35
-60.59
-62.71
-62.75
-60.08
-54.66
-47.05
-38.20
-29.05
-20.18
-11.79
-3.87
3.58
10.35
16.10
20.57
23.73
25.77
27.03
27.84
28.34
28.56
28.46
28.06
27.52
27.09
27.07
27.60
28.62
29.82
30.76
31.12
30.73
29.73
28.39
26.97
25.57
24.13
22.61
20.98
19.35
17.85
16.60
15.58
14.71
13.93
13.18
12.40
11.47
10.31
8.85
7.11
5.21
3.24
1.20
-1.00
-3.44
-6.09
-8.72
-11.02
-12.75
-13.89
-14.71
-15.61
-17.01
-19.16
-22.04
-25.41
-28.93
-32.35
-35.57
-38.71
-42.01
-45.66
-49.72
-54.08
-58.55
-62.84
-66.70
-69.78
-71.68
-71.82
-69.71
-65.01
-57.83
-48.72
-38.56
-28.35
-18.86
-10.58
-3.57
2.33
7.38
11.86
15.87
19.44
22.50
24.98
26.89
28.33
29.40
30.20
30.73
30.98
31.02
31.09
31.49
32.47
34.02
35.82
37.36
38.11
37.75
36.31
34.10
31.52
28.95
26.60
24.53
22.70
21.07
19.59
18.20
16.85
15.46
13.93
12.17
10.13
7.87
5.52
3.29
1.32
-0.32
-1.73
-3.14
-4.82
-6.98
-9.66
-12.70
-15.81
-18.65
-21.08
-23.17
-25.21
-27.55
-30.40
-33.73
-37.29
-40.84
-44.27
-47.74
-51.55
-55.97
-60.99
-66.24
-70.95
-74.14
-74.95
-72.79
-67.56
-59.62
-49.67
-38.52
-26.98
-15.67
-5.08
4.45
12.75
19.79
25.69
30.69
35.01
38.76
41.90
44.25
45.63
46.05
45.69
44.91
44.14
43.70
43.69
44.05
44.59
45.13
45.50
45.67
45.62
45.35
44.79
43.89
42.61
41.02
39.24
37.47
35.78
34.14
32.35
30.20
27.60
24.61
21.48
18.53
15.95
13.89
12.24
10.83
9.44
7.92
6.23
4.38
2.37
0.14
-2.40
-5.33
-8.62
-12.09
-15.46
-18.46
-20.92
-22.97
-24.90
-27.14
-29.97
-33.49
-37.46
-41.55
-45.41
-48.95
-52.35
-56.04
-60.41
-65.59
-71.12
-76.00
-78.89
-78.58
-74.40
-66.46
-55.66
-43.30
-30.68
-18.71
-7.84
1.83
10.36
17.76
24.06
29.31
33.71
37.51
40.93
44.01
46.64
48.56
49.60
49.74
49.26
48.60
48.22
48.40
49.15
50.15
51.00
51.26
50.75
49.53
47.87
46.06
44.27
42.56
40.82
38.96
36.93
34.79
32.57
30.32
28.05
25.78
23.51
21.26
19.06
16.90
14.74
12.58
10.43
8.25
6.06
3.81
1.48
-0.95
-3.46
-6.02
-8.64
-11.38
-14.28
-17.33
-20.40
-23.30
-25.94
-28.39
-30.92
-33.87
-37.43
-41.52
-45.75
-49.64
-52.83
-55.38
-57.80
-60.83
-65.06
-70.45
-76.14
-80.58
-82.06
-79.32
-72.04
-60.96
-47.53
-33.42
-19.94
-7.85
2.66
11.65
19.29
25.71
30.96
35.15
38.42
41.01
43.08
44.78
46.12
47.01
47.35
47.13
46.54
45.95
45.72
46.03
46.73
47.43
47.68
47.16
45.90
44.17
42.35
40.74
39.45
38.40
37.43
36.33
34.93
33.11
30.83
28.16
25.21
22.13
19.13
16.39
14.05
12.27
10.97
9.96
8.84
7.25
4.97
2.08
-1.09
-4.14
-6.78
-9.02
-11.09
-13.29
-15.78
-18.60
-21.59
-24.60
-27.55
-30.43
-33.30
-36.16
-39.03
-41.88
-44.71
-47.56
-50.56
-53.84
-57.57
-61.90
-66.72
-71.65
-75.91
-78.42
-78.15
-74.41
-67.13
-56.95
-44.95
-32.36
-20.21
-9.06
0.92
9.84
17.87
25.13
31.60
37.22
41.87
45.44
47.88
49.13
49.25
48.39
46.82
44.98
43.33
42.28
42.01
42.41
43.13
43.73
43.90
43.54
42.77
41.78
40.73
39.65
38.44
36.94
35.08
32.91
30.57
28.24
26.06
24.05
22.11
20.10
17.89
15.44
12.87
10.42
8.37
6.92
6.05
5.44
4.68
3.33
1.18
-1.70
-4.94
-8.12
-10.90
-13.22
-15.31
-17.53
-20.16
-23.29
-26.74
-30.28
-33.69
-36.93
-40.08
-43.24
-46.46
-49.72
-53.11
-56.80
-61.05
-65.99
-71.40
-76.56
-80.33
-81.45
-78.96
-72.58
-62.85
-50.96
-38.29
-26.07
-15.01
-5.29
3.23
10.74
17.27
22.68
26.85
29.84
31.89
33.37
34.57
35.63
36.52
37.08
37.23
36.95
36.34
35.65
35.09
34.84
34.85
34.87
34.51
33.46
31.69
29.48
27.31
25.56
24.33
23.34
22.18
20.55
18.50
16.28
14.24
12.51
11.00
9.46
7.71
5.81
3.92
2.29
0.95
-0.29
-1.75
-3.71
-6.21
-9.05
-11.84
-14.28
-16.27
-18.07
-20.11
-22.77
-26.13
-29.93
-33.64
-36.75
-39.02
-40.55
-41.78
-43.27
-45.55
-48.95
-53.48
-58.83
-64.23
-68.60
-70.75
-69.71
-65.01
-56.89
-46.16
-33.97
-21.48
-9.60
1.05
10.17
17.73
23.91
29.06
33.47
37.36
40.65
43.14
44.59
44.95
44.47
43.59
42.83
42.59
42.98
43.82
44.77
45.43
45.55
45.07
44.14
42.98
41.70
40.31
38.65
36.58
34.14
31.54
29.12
27.13
25.62
24.37
23.09
21.51
19.52
17.22
14.72
12.17
9.60
7.00
4.35
1.73
-0.74
-2.89
-4.58
-5.84
-6.82
-7.84
-9.19
-11.10
-13.61
-16.64
-20.02
-23.57
-27.24
-30.94
-34.65
-38.25
-41.63
-44.72
-47.50
-50.07
-52.62
-55.46
-58.88
-63.00
-67.67
-72.26
-75.78
-77.08
-75.24
-69.93
-61.53
-50.90
-39.15
-27.15
-15.50
-4.48
5.66
14.71
22.44
28.71
33.60
37.31
40.10
42.15
43.53
44.25
44.35
43.97
43.33
42.71
42.38
42.51
43.13
44.12
45.19
46.06
46.48
46.32
45.59
44.35
42.64
40.49
37.95
35.19
32.43
29.90
27.75
25.94
24.32
22.71
20.99
19.12
17.12
15.00
12.77
10.46
8.11
5.73
3.34
0.88
-1.72
-4.43
-7.14
-9.63
-11.69
-13.30
-14.64
-16.10
-18.09
-20.88
-24.43
-28.48
-32.66
-36.66
-40.34
-43.75
-47.02
-50.23
-53.44
-56.71
-60.10
-63.76
-67.71
-71.64
-74.84
-76.24
-74.78
-69.80
-61.33
-50.19
-37.70
-25.27
-13.97
-4.31
3.73
10.49
16.36
21.59
26.23
30.19
33.39
35.86
37.69
39.04
39.97
40.39
40.19
39.35
38.03
36.65
35.69
35.46
35.97
36.87
37.65
37.78
36.98
35.26
32.87
30.16
27.41
24.80
22.34
20.01
17.83
15.89
14.34
13.28
12.64
12.15
11.45
10.22
8.35
5.94
3.25
0.60
-1.85
-4.10
-6.31
-8.61
-11.10
-13.77
-16.53
-19.32
-22.10
-24.89
-27.73
-30.66
-33.58
-36.32
-38.70
-40.67
-42.43
-44.43
-47.22
-51.21
-56.43
-62.34
-67.97
-72.12
-73.71
-72.12
-67.28
-59.62
-49.93
-39.12
-27.95
-16.95
-6.50
3.16
11.79
19.17
25.24
30.12
34.10
37.48
40.41
42.80
44.41
45.04
44.74
43.86
42.91
42.37
42.45
43.01
43.68
44.08
44.01
43.50
42.79
42.09
41.53
41.01
40.29
39.09
37.25
34.81
32.01
29.09
26.25
23.54
20.89
18.24
15.66
13.35
11.54
10.40
9.81
9.39
8.60
6.97
4.33
0.87
-2.93
-6.55
-9.61
-12.07
-14.12
-16.07
-18.13
-20.38
-22.73
-25.10
-27.48
-30.02
-32.89
-36.11
-39.54
-42.86
-45.84
-48.49
-51.19
-54.53
-59.00
-64.59
-70.62
-75.83
-78.70
-78.05
-73.38
-65.02
-54.01
-41.68
-29.26
-17.59
-7.00
2.55
11.19
19.00
25.91
31.74
36.41
40.00
42.76
44.90
46.54
47.63
48.03
47.71
46.82
45.70
44.76
44.30
44.36
44.76
45.17
45.27
44.88
44.02
42.86
41.63
40.45
39.30
38.00
36.35
34.23
31.79
29.30
27.06
25.20
23.60
22.04
20.28
18.28
16.17
14.14
12.27
10.49
8.58
6.29
3.56
0.54
-2.52
-5.34
-7.78
-9.97
-12.28
-15.13
-18.84
-23.39
-28.43
-33.41
-37.76
-41.19
-43.75
-45.83
-47.98
-50.74
-54.47
-59.20
-64.67
-70.32
-75.33
-78.80
-79.82
-77.72
-72.24
-63.57
-52.44
-39.93
-27.27
-15.51
-5.31
3.11
10.00
15.76
20.79
25.27
29.16
32.24
34.31
35.27
35.27
34.59
33.62
32.73
32.12
31.81
31.60
31.29
30.71
29.88
28.93
27.93
26.81
25.32
23.19
20.35
17.05
13.81
11.15
9.41
8.52
8.09
7.66
6.86
5.65
4.13
2.46
0.69
-1.31
-3.69
-6.47
-9.46
-12.27
-14.58
-16.30
-17.68
-19.22
-21.38
-24.34
-27.86
-31.41
-34.40
-36.48
-37.75
-38.67
-39.94
-42.22
-45.82
-50.60
-55.88
-60.60
-63.52
-63.58
-60.22
-53.50
-44.04
-32.90
-21.22
-10.00
0.06
8.63
15.71
21.56
26.56
31.09
35.36
39.41
43.09
46.15
48.39
49.65
49.93
49.31
48.01
46.38
44.79
43.61
43.05
43.08
43.46
43.85
43.96
43.60
42.74
41.43
39.73
37.71
35.51
33.31
31.33
29.72
28.47
27.38
26.10
24.28
21.72
18.47
14.89
11.45
8.64
6.65
5.34
4.29
2.97
1.02
-1.61
-4.67
-7.82
-10.77
-13.46
-16.05
-18.73
-21.65
-24.83
-28.16
-31.56
-34.97
-38.39
-41.85
-45.34
-48.82
-52.28
-55.84
-59.68
-63.96
-68.62
-73.24
-76.99
-78.79
-77.65
-72.99
-64.95
-54.35
-42.43
-30.51
-19.53
-9.94
-1.68
5.63
12.34
18.70
24.68
30.14
34.87
38.73
41.67
43.72
45.05
45.84
46.24
46.39
46.36
46.22
46.07
45.98
45.90
45.68
45.05
43.84
42.06
39.98
38.00
36.52
35.62
35.14
34.66
33.76
32.18
29.95
27.32
24.62
22.14
20.04
18.28
16.69
15.07
13.34
11.51
9.72
8.10
6.64
5.16
3.41
1.16
-1.61
-4.73
-7.86
-10.69
-13.04
-14.96
-16.69
-18.56
-20.82
-23.55
-26.63
-29.85
-32.93
-35.71
-38.12
-40.26
-42.30
-44.54
-47.30
-50.94
-55.60
-61.01
-66.36
-70.40
-71.77
-69.49
-63.33
-53.94
-42.63
-30.89
-20.01
-10.74
-3.25
2.73
7.77
12.41
17.03
21.71
26.27
30.41
33.87
36.57
38.57
40.00
40.85
41.07
40.60
39.57
38.38
37.47
37.19
37.52
38.06
38.19
37.43
35.59
32.92
29.89
27.00
24.54
22.52
20.75
18.99
17.13
15.18
13.20
11.28
9.34
7.24
4.84
2.11
-0.83
-3.74
-6.41
-8.78
-10.98
-13.19
-15.67
-18.52
-21.72
-25.10
-28.40
-31.39
-33.97
-36.15
-38.04
-39.77
-41.36
-42.70
-43.61
-43.98
-43.99
-44.08
-44.87
-46.87
-50.14
-54.15
-57.94
-60.35
-60.46
-57.85
-52.63
-45.35
-36.71
-27.32
-17.70
-8.24
0.75
8.92
15.97
21.68
25.95
28.90
30.77
31.92
32.65
33.18
33.60
33.84
33.81
33.53
33.12
32.86
33.01
33.64
34.56
35.37
35.66
35.26
34.27
33.01
31.79
30.76
29.85
28.86
27.68
26.32
24.94
23.67
22.49
21.26
19.78
17.94
15.77
13.48
11.27
9.27
7.53
5.86
4.07
1.91
-0.76
-3.89
-7.26
-10.49
-13.25
-15.40
-17.15
-18.96
-21.31
-24.47
-28.31
-32.42
-36.38
-39.99
-43.39
-46.90
-50.72
-54.81
-58.94
-62.78
-66.11
-68.79
-70.58
-71.01
-69.48
-65.47
-58.87
-50.13
-40.11
-29.85
-20.10
-11.24
-3.25
4.12
11.13
17.92
24.42
30.41
35.56
39.60
42.44
44.20
45.19
45.70
45.93
45.90
45.54
44.81
43.83
42.87
42.14
41.77
41.65
41.54
41.18
40.41
39.26
37.87
36.45
35.14
33.92
32.65
31.09
29.14
26.84
24.50
22.53
21.20
20.52
20.15
19.55
18.36
16.47
14.16
11.83
9.68
7.62
5.30
2.39
-1.14
-4.95
-8.51
-11.36
-13.38
-14.88
-16.43
-18.56
-21.55
-25.31
-29.49
-33.66
-37.48
-40.87
-43.90
-46.80
-49.76
-52.98
-56.62
-60.71
-65.17
-69.64
-73.50
-75.91
-76.03
-73.29
-67.53
-59.15
-48.95
-37.98
-27.23
-17.40
-8.85
-1.53
4.90
10.89
16.69
22.35
27.58
31.98
35.25
37.27
38.21
38.34
38.01
37.48
36.86
36.23
35.61
35.08
34.75
34.73
34.97
35.29
35.32
34.67
33.14
30.77
27.92
25.17
23.00
21.64
20.93
20.44
19.72
18.44
16.53
14.14
11.59
9.10
6.77
4.51
2.13
-0.55
-3.50
-6.54
-9.45
-12.11
-14.65
-17.41
-20.66
-24.45
-28.48
-32.20
-35.05
-36.76
-37.47
-37.68
-38.00
-38.97
-40.88
-43.80
-47.62
-52.19
-57.22
-62.27
-66.61
-69.25
-69.19
-65.69
-58.64
-48.70
-37.05
-25.09
-13.92
-4.11
4.29
11.55
17.99
23.72
28.69
32.76
35.85
38.02
39.51
40.64
41.71
42.96
44.41
45.86
47.02
47.62
47.54
46.93
46.08
45.24
44.53
43.88
43.10
42.05
40.72
39.23
37.75
36.37
35.04
33.66
32.13
30.41
28.49
26.37
24.02
21.46
18.66
15.71
12.71
9.75
6.96
4.41
2.17
0.19
-1.68
-3.66
-5.96
-8.70
-11.81
-15.08
-18.27
-21.26
-24.14
-27.11
-30.33
-33.82
-37.37
-40.69
-43.62
-46.17
-48.64
-51.46
-54.99
-59.43
-64.60
-69.96
-74.67
-77.74
-78.28
-75.71
-69.95
-61.42
-50.92
-39.42
-27.81
-16.72
-6.52
2.75
11.13
18.75
25.63
31.74
37.04
41.47
44.99
47.60
49.35
50.32
50.66
50.63
50.46
50.34
50.29
50.20
49.89
49.28
48.39
47.37
46.37
45.38
44.32
43.05
41.52
39.77
37.89
35.98
34.08
32.20
30.37
28.66
27.04
25.51
23.93
22.17
20.16
17.89
15.40
12.73
9.86
6.80
3.61
0.43
-2.48
-4.94
-6.94
-8.64
-10.41
-12.59
-15.42
-18.94
-22.94
-27.15
-31.28
-35.17
-38.78
-42.15
-45.32
-48.34
-51.33
-54.53
-58.26
-62.76
-67.91
-73.07
-77.05
-78.54
-76.55
-70.88
-62.18
-51.71
-40.74
-30.21
-20.47
-11.43
-2.86
5.35
13.06
19.94
25.66
30.09
33.34
35.70
37.46
38.76
39.55
39.71
39.19
38.14
36.96
36.12
35.88
36.23
36.83
37.22
37.07
36.15
34.46
32.07
29.14
25.84
22.39
19.01
15.92
13.32
11.28
9.86
8.97
8.43
7.89
6.98
5.39
3.03
0.04
-3.22
-6.41
-9.35
-12.06
-14.72
-17.53
-20.59
-23.89
-27.26
-30.55
-33.55
-36.09
-38.05
-39.37
-40.12
-40.49
-40.83
-41.60
-43.33
-46.39
-50.85
-56.24
-61.53
-65.34
-66.34
-63.65
-57.14
-47.52
-36.05
-24.13
-13.01
-3.43
4.36
10.58
15.70
20.22
24.44
28.45
32.08
35.09
37.33
38.82
39.73
40.30
40.72
41.02
41.21
41.34
41.50
41.81
42.30
42.87
43.26
43.24
42.64
41.51
40.08
38.63
37.36
36.32
35.39
34.37
33.06
31.35
29.25
26.86
24.34
21.85
19.46
17.18
14.93
12.62
10.20
7.68
5.15
2.67
0.24
-2.25
-4.97
-8.01
-11.36
-14.86
-18.36
-21.83
-25.37
-29.17
-33.26
-37.46
-41.33
-44.45
-46.62
-48.07
-49.39
-51.35
-54.52
-59.09
-64.73
-70.74
-76.08
-79.72
-80.72
-78.44
-72.74
-64.02
-53.15
-41.23
-29.30
-18.14
-8.14
0.70
8.58
15.79
22.58
29.04
35.09
40.44
44.74
47.73
49.43
50.12
50.28
50.37
50.68
51.21
51.76
52.10
52.01
51.44
50.45
49.15
47.66
46.11
44.58
43.11
41.70
40.31
38.90
37.43
35.88
34.23
32.42
30.33
27.86
25.00
21.90
18.79
15.90
13.32
10.94
8.55
5.92
2.96
-0.23
-3.40
-6.31
-8.81
-10.92
-12.81
-14.72
-16.85
-19.32
-22.20
-25.56
-29.48
-34.00
-38.98
-44.06
-48.71
-52.43
-55.02
-56.75
-58.33
-60.57
-64.02
-68.57
-73.46
-77.43
-79.18
-77.77
-72.94
-65.14
-55.30
-44.52
-33.72
-23.45
-13.90
-5.06
3.04
10.31
16.63
21.92
26.36
30.27
33.98
37.62
41.03
43.86
45.76
46.57
46.43
45.70
44.81
44.09
43.67
43.45
43.18
42.58
41.45
39.72
37.47
34.89
32.13
29.37
26.73
24.27
22.02
20.01
18.19
16.48
14.78
12.97
11.00
8.80
6.35
3.61
0.63
-2.50
-5.63
-8.63
-11.43
-14.04
-16.55
-19.02
-21.52
-24.04
-26.64
-29.40
-32.40
-35.66
-39.05
-42.36
-45.37
-48.02
-50.46
-53.06
-56.18
-60.02
-64.38
-68.61
-71.69
-72.52
-70.29
-64.76
-56.44
-46.30
-35.55
-25.14
-15.60
-6.99
0.86
8.11
14.81
20.87
26.27
31.05
35.35
39.27
42.77
45.64
47.65
48.66
48.78
48.31
47.67
47.23
47.11
47.18
47.19
46.92
46.30
45.47
44.62
43.88
43.16
42.23
40.84
38.89
36.46
33.83
31.25
28.84
26.59
24.36
22.05
19.61
17.10
14.58
12.14
9.83
7.64
5.49
3.26
0.84
-1.82
-4.68
-7.57
-10.35
-12.96
-15.48
-18.05
-20.81
-23.73
-26.65
-29.35
-31.71
-33.84
-36.02
-38.57
-41.67
-45.20
-48.83
-52.26
-55.38
-58.39
-61.74
-65.74
-70.28
-74.64
-77.70
-78.25
-75.50
-69.39
-60.55
-50.07
-39.07
-28.37
-18.33
-9.01
-0.35
7.69
15.01
21.54
27.22
32.16
36.54
40.54
44.21
47.46
50.11
52.00
53.07
53.40
53.25
52.90
52.57
52.36
52.18
51.84
51.21
50.21
48.93
47.52
46.14
44.80
43.43
41.85
39.92
37.56
34.85
31.96
29.07
26.27
23.56
20.85
18.09
15.31
12.64
10.27
8.29
6.58
4.82
2.67
-0.09
-3.40
-6.96
-10.36
-13.37
-15.99
-18.50
-21.26
-24.54
-28.41
-32.68
-37.02
-41.07
-44.58
-47.49
-49.93
-52.13
-54.45
-57.24
-60.77
-65.15
-70.26
-75.60
-80.32
-83.32
-83.54
-80.20
-73.16
-62.90
-50.55
-37.47
-24.89
-13.67
-4.10
3.99
11.01
17.31
23.11
28.35
32.88
36.57
39.47
41.79
43.77
45.48
46.80
47.43
47.18
46.09
44.56
43.04
41.94
41.30
40.81
39.96
38.34
35.78
32.50
28.97
25.71
23.10
21.24
19.96
18.92
17.82
16.51
15.04
13.55
12.08
10.55
8.75
6.50
3.76
0.70
-2.38
-5.20
-7.60
-9.66
-11.60
-13.78
-16.48
-19.91
-24.07
-28.80
-33.76
-38.56
-42.86
-46.46
-49.33
-51.63
-53.64
-55.73
-58.28
-61.51
-65.34
-69.23
-72.22
-73.14
-71.05
-65.53
-56.93
-46.26
-34.82
-23.77
-13.83
-5.10
2.76
10.25
17.73
25.19
32.28
38.48
43.40
46.91
49.24
50.79
51.90
52.70
53.10
52.89
52.01
50.66
49.28
48.32
48.06
48.46
49.12
49.50
49.13
47.82
45.68
43.08
40.41
37.90
35.52
33.10
30.48
27.63
24.74
22.07
19.79
17.91
16.16
14.27
12.00
9.29
6.28
3.21
0.27
-2.42
-4.89
-7.21
-9.51
-11.89
-14.44
-17.21
-20.27
-23.62
-27.27
-31.13
-35.09
-38.98
-42.61
-45.84
-48.72
-51.47
-54.48
-58.19
-62.82
-68.24
-73.83
-78.64
-81.58
-81.77
-78.74
-72.59
-63.94
-53.69
-42.78
-31.95
-21.65
-11.99
-2.97
5.52
13.54
21.16
28.43
35.35
41.80
47.53
52.11
55.16
56.56
56.51
55.54
54.38
53.61
53.51
53.95
54.60
55.03
54.96
54.32
53.17
51.66
49.90
47.88
45.59
43.05
40.35
37.65
35.03
32.45
29.78
26.86
23.66
20.35
17.26
14.68
12.75
11.31
9.99
8.36
6.03
2.88
-1.01
-5.33
-9.75
-13.93
-17.73
-21.14
-24.34
-27.61
-31.14
-35.06
-39.31
-43.72
-48.00
-51.89
-55.11
-57.56
-59.32
-60.70
-62.20
-64.38
-67.58
-71.78
-76.50
-80.77
-83.39
-83.15
-79.28
-71.58
-60.67
-47.75
-34.26
-21.52
-10.35
-0.94
7.01
13.96
20.26
25.99
31.07
35.31
38.71
41.39
43.56
45.47
47.19
48.65
49.64
49.91
49.38
48.11
46.38
44.51
42.71
40.94
39.06
36.88
34.43
31.98
29.88
28.36
27.33
26.35
24.95
22.87
20.25
17.54
15.23
13.59
12.48
11.50
10.20
8.27
5.67
2.62
-0.57
-3.61
-6.30
-8.66
-10.85
-13.17
-15.92
-19.26
-23.21
-27.63
-32.29
-36.95
-41.39
-45.39
-48.84
-51.75
-54.37
-57.13
-60.48
-64.61
-69.22
-73.46
-76.15
-76.18
-72.89
-66.27
-56.96
-45.99
-34.50
-23.36
-13.10
-3.82
4.64
12.55
20.11
27.35
34.17
40.36
45.72
50.07
53.32
55.38
56.27
56.11
55.19
53.91
52.73
52.01
51.87
52.21
52.68
52.88
52.49
51.34
49.53
47.27
44.85
42.48
40.23
37.99
35.57
32.84
29.83
26.71
23.78
21.26
19.24
17.60
16.08
14.36
12.25
9.77
7.08
4.39
1.75
-0.93
-3.86
-7.18
-10.79
-14.35
-17.40
-19.61
-20.98
-21.91
-22.97
-24.67
-27.22
-30.49
-34.12
-37.72
-41.04
-43.95
-46.52
-48.82
-51.05
-53.43
-56.27
-59.71
-63.64
-67.51
-70.39
-71.25
-69.30
-64.31
-56.68
-47.31
-37.22
-27.33
-18.19
-9.92
-2.37
4.82
11.94
19.16
26.40
33.37
39.66
44.85
48.70
51.14
52.37
52.64
52.26
51.48
50.53
49.64
48.99
48.71
48.79
49.07
49.24
48.93
47.88
46.03
43.59
40.91
38.38
36.19
34.28
32.37
30.02
26.93
23.07
18.72
14.36
10.50
7.45
5.22
3.52
1.92
0.04
-2.34
-5.24
-8.64
-12.44
-16.62
-21.09
-25.69
-30.14
-34.11
-37.39
-40.00
-42.20
-44.40
-46.89
-49.75
-52.77
-55.61
-58.02
-60.04
-62.00
-64.35
-67.44
-71.16
-74.90
-77.62
-78.16
-75.61
-69.71
-60.85
-49.99
-38.30
-26.81
-16.15
-6.57
2.02
9.71
16.57
22.56
27.65
31.89
35.48
38.67
41.65
44.44
46.83
48.51
49.25
49.08
48.29
47.38
46.70
46.32
45.96
45.20
43.72
41.56
39.03
36.56
34.44
32.72
31.18
29.55
27.62
25.36
22.86
20.26
17.68
15.19
12.84
10.67
8.73
7.02
5.49
3.98
2.34
0.40
-1.92
-4.61
-7.53
-10.52
-13.45
-16.32
-19.22
-22.35
-25.84
-29.68
-33.74
-37.76
-41.47
-44.70
-47.50
-50.07
-52.80
-56.12
-60.31
-65.30
-70.59
-75.20
-77.99
-78.00
-74.74
-68.43
-59.81
-49.86
-39.46
-29.16
-19.19
-9.64
-0.58
7.86
15.52
22.33
28.35
33.71
38.46
42.55
45.80
48.02
49.22
49.67
49.79
50.04
50.61
51.37
51.94
51.93
51.19
49.91
48.45
47.15
46.11
45.10
43.78
41.86
39.31
36.32
33.21
30.26
27.58
25.11
22.72
20.33
17.99
15.83
13.98
12.44
11.06
9.48
7.37
4.56
1.16
-2.46
-5.77
-8.40
-10.20
-11.37
-12.37
-13.68
-15.67
-18.46
-21.92
-25.77
-29.68
-33.41
-36.82
-39.92
-42.75
-45.44
-48.16
-51.16
-54.71
-58.95
-63.69
-68.27
-71.66
-72.75
-70.72
-65.38
-57.25
-47.36
-36.90
-26.87
-17.80
-9.77
-2.52
4.37
11.19
18.00
24.60
30.63
35.74
39.77
42.74
44.84
46.20
46.86
46.79
46.03
44.84
43.67
43.03
43.18
44.03
45.10
45.74
45.45
44.08
41.83
39.18
36.56
34.19
32.02
29.77
27.20
24.28
21.19
18.26
15.79
13.84
12.18
10.42
8.15
5.23
1.76
-1.97
-5.62
-9.02
-12.21
-15.40
-18.81
-22.57
-26.63
-30.83
-34.96
-38.87
-42.49
-45.80
-48.74
-51.16
-52.92
-54.00
-54.64
-55.43
-57.07
-60.08
-64.34
-69.06
-72.82
-74.13
-71.94
-66.04
-57.07
-46.24
-34.91
-24.17
-14.61
-6.32
0.94
7.54
13.76
19.65
25.10
29.89
33.91
37.17
39.80
41.95
43.70
44.96
45.63
45.71
45.31
44.62
43.81
42.88
41.68
40.03
37.89
35.39
32.73
30.13
27.68
25.36
23.09
20.83
18.58
16.41
14.38
12.53
10.83
9.14
7.25
5.01
2.36
-0.54
-3.40
-5.88
-7.82
-9.31
-10.69
-12.43
-14.89
-18.22
-22.31
-26.89
-31.61
-36.17
-40.35
-44.08
-47.48
-50.83
-54.51
-58.76
-63.52
-68.28
-72.13
-73.99
-72.94
-68.57
-61.08
-51.23
-40.08
-28.70
-17.91
-8.16
0.50
8.21
15.24
21.86
28.24
34.41
40.27
45.61
50.17
53.77
56.34
57.93
58.69
58.74
58.16
57.04
55.51
53.76
52.11
50.81
49.96
49.48
49.10
48.45
47.27
45.49
43.17
40.51
37.71
34.84
31.91
28.85
25.63
22.37
19.30
16.65
14.61
13.13
11.94
10.63
8.81
6.27
3.11
-0.35
-3.69
-6.60
-9.03
-11.16
-13.31
-15.74
-18.56
-21.72
-25.04
-28.35
-31.54
-34.62
-37.69
-40.79
-43.99
-47.28
-50.70
-54.46
-58.89
-64.22
-70.30
-76.39
-81.19
-83.22
-81.41
-75.51
-66.25
-55.03
-43.33
-32.26
-22.30
-13.39
-5.21
2.49
9.79
16.64
22.98
28.85
34.29
39.31
43.80
47.50
50.13
51.55
51.87
51.48
50.92
50.69
51.01
51.74
52.49
52.77
52.26
50.90
48.89
46.63
44.42
42.45
40.67
38.91
36.99
34.79
32.36
29.78
27.16
24.55
21.94
19.31
16.68
14.04
11.45
8.95
6.51
4.10
1.59
-1.18
-4.32
-7.86
-11.74
-15.73
-19.55
-22.98
-25.98
-28.76
-31.67
-35.02
-38.83
-42.85
-46.62
-49.79
-52.29
-54.42
-56.70
-59.59
-63.25
-67.53
-71.94
-75.89
-78.67
-79.63
-78.19
-73.91
-66.73
-56.98
-45.45
-33.20
-21.24
-10.33
-0.84
7.28
14.34
20.65
26.44
31.68
36.19
39.73
42.18
43.62
44.39
44.90
45.42
46.05
46.65
47.04
47.06
46.72
46.05
45.09
43.75
41.87
39.30
36.03
32.25
28.33
24.68
21.69
19.54
18.12
17.15
16.20
14.87
12.94
10.50
7.86
5.40
3.38
1.76
0.23
-1.60
-4.02
-7.07
-10.52
-14.05
-17.35
-20.30
-23.00
-25.71
-28.69
-32.07
-35.80
-39.70
-43.57
-47.28
-50.75
-53.99
-57.04
-59.94
-62.74
-65.43
-67.93
-69.94
-70.95
-70.31
-67.51
-62.32
-54.95
-45.99
-36.16
-26.18
-16.55
-7.48
1.01
9.03
16.75
24.23
31.34
37.78
43.13
47.08
49.62
51.05
51.85
52.46
53.01
53.33
53.10
52.14
50.62
48.97
47.74
47.36
47.85
48.87
49.86
50.27
49.69
48.02
45.41
42.16
38.62
35.02
31.55
28.27
25.21
22.38
19.72
17.15
14.56
11.88
9.08
6.26
3.55
1.03
-1.26
-3.42
-5.65
-8.17
-11.19
-14.75
-18.62
-22.40
-25.60
-27.87
-29.16
-29.79
-30.22
-30.87
-31.94
-33.40
-35.18
-37.33
-40.11
-43.89
-48.91
-55.01
-61.63
-67.86
-72.70
-75.32
-75.21
-72.27
-66.78
-59.28
-50.45
-40.91
-31.14
-21.50
-12.22
-3.50
4.53
11.83
18.39
24.34
29.80
34.83
39.41
43.43
46.77
49.31
50.98
51.76
51.70
50.98
49.84
48.55
47.34
46.28
45.31
44.33
43.25
42.07
40.81
39.47
38.00
36.32
34.44
32.43
30.40
28.41
26.42
24.25
21.77
18.95
15.85
12.61
9.34
6.02
2.62
-0.88
-4.42
-7.84
-11.00
-13.88
-16.57
-19.26
-22.18
-25.47
-29.20
-33.37
-37.91
-42.64
-47.25
-51.32
-54.44
-56.42
-57.40
-57.90
-58.64
-60.31
-63.24
-67.26
-71.67
-75.46
-77.50
-76.91
-73.20
-66.45
-57.15
-46.13
-34.30
-22.52
-11.43
-1.38
7.53
15.38
22.36
28.62
34.20
39.00
42.84
45.59
47.27
48.12
48.52
48.83
49.25
49.78
50.21
50.29
49.82
48.81
47.41
45.83
44.21
42.52
40.61
38.30
35.61
32.77
30.20
28.23
26.93
26.01
24.97
23.37
21.07
18.31
15.54
13.19
11.34
9.76
8.00
5.71
2.77
-0.58
-3.92
-6.85
-9.19
-11.06
-12.84
-14.95
-17.73
-21.25
-25.37
-29.78
-34.17
-38.28
-41.98
-45.23
-48.08
-50.72
-53.44
-56.59
-60.46
-65.11
-70.19
-74.88
-78.13
-78.90
-76.49
-70.79
-62.36
-52.22
-41.54
-31.26
-21.88
-13.40
-5.43
2.44
10.51
18.72
26.70
34.01
40.19
44.96
48.24
50.17
51.01
51.07
50.68
50.10
49.54
49.14
48.98
49.08
49.36
49.61
49.54
48.88
47.47
45.44
43.14
41.02
39.35
38.12
37.00
35.55
33.42
30.63
27.46
24.42
21.93
20.11
18.80
17.62
16.17
14.25
11.87
9.14
6.20
3.08
-0.23
-3.66
-6.99
-9.87
-12.04
-13.48
-14.57
-15.94
-18.20
-21.69
-26.24
-31.29
-36.18
-40.39
-43.84
-46.85
-49.93
-53.56
-57.91
-62.74
-67.39
-70.98
-72.65
-71.78
-68.15
-61.94
-53.62
-43.84
-33.29
-22.61
-12.40
-3.12
4.92
11.68
17.41
22.54
27.45
32.28
36.89
40.84
43.70
45.28
45.69
45.32
44.65
44.02
43.50
42.96
42.21
41.17
39.89
38.52
37.21
35.96
34.68
33.25
31.66
30.04
28.58
27.37
26.28
24.98
23.06
20.25
16.60
12.47
8.40
4.89
2.19
0.19
-1.53
-3.50
-6.16
-9.63
-13.71
-17.97
-21.94
-25.35
-28.21
-30.75
-33.30
-36.07
-39.04
-42.03
-44.72
-46.87
-48.36
-49.26
-49.85
-50.48
-51.47
-53.07
-55.26
-57.79
-60.22
-61.94
-62.31
-60.74
-56.78
-50.31
-41.57
-31.15
-19.91
-8.79
1.44
10.32
17.71
23.70
28.45
32.12
34.79
36.53
37.48
37.90
38.08
38.32
38.83
39.62
40.57
41.46
42.09
42.36
42.25
41.83
41.15
40.25
39.19
37.97
36.61
35.08
33.37
31.46
29.46
27.54
25.94
24.79
24.00
23.34
22.42
21.00
19.02
16.67
14.16
11.54
8.72
5.49
1.78
-2.20
-6.07
-9.46
-12.19
-14.43
-16.56
-18.97
-21.91
-25.37
-29.15
-33.00
-36.77
-40.45
-44.11
-47.90
-51.90
-56.15
-60.61
-65.20
-69.77
-74.04
-77.55
-79.61
-79.45
-76.50
-70.58
-62.12
-52.02
-41.42
-31.24
-21.95
-13.56
-5.78
1.75
9.26
16.72
23.97
30.72
36.68
41.62
45.39
47.98
49.49
50.12
50.07
49.55
48.72
47.74
46.83
46.15
45.83
45.83
45.99
46.02
45.69
44.87
43.54
41.80
39.83
37.78
35.75
33.79
31.86
29.89
27.83
25.65
23.42
21.28
19.36
17.69
16.15
14.48
12.39
9.70
6.42
2.78
-0.87
-4.19
-7.03
-9.45
-11.72
-14.08
-16.69
-19.52
-22.43
-25.33
-28.23
-31.21
-34.39
-37.77
-41.26
-44.73
-48.17
-51.76
-55.81
-60.55
-65.83
-70.97
-74.87
-76.29
-74.34
-68.84
-60.43
-50.42
-40.23
-30.95
-22.94
-15.92
-9.26
-2.45
4.57
11.49
17.82
23.26
27.82
31.71
35.10
37.97
40.09
41.24
41.41
40.92
40.29
39.93
40.01
40.32
40.45
40.03
38.91
37.15
35.08
32.98
31.09
29.39
27.71
25.82
23.50
20.71
17.56
14.32
11.26
8.61
6.47
4.78
3.38
2.07
0.66
-1.00
-2.96
-5.27
-7.86
-10.68
-13.70
-16.91
-20.34
-23.94
-27.63
-31.27
-34.66
-37.64
-40.10
-41.98
-43.29
-44.17
-44.87
-45.81
-47.40
-49.99
-53.56
-57.65
-61.38
-63.65
-63.51
-60.46
-54.60
-46.54
-37.17
-27.38
-17.86
-8.97
-0.85
6.48
13.03
18.85
23.97
28.46
32.40
35.81
38.66
40.85
42.33
43.15
43.50
43.66
43.91
44.43
45.28
46.30
47.28
47.91
47.96
47.33
46.09
44.40
42.49
40.49
38.47
36.42
34.38
32.38
30.50
28.74
27.01
25.11
22.89
20.31
17.52
14.80
12.42
10.45
8.74
6.96
4.76
1.90
-1.57
-5.39
-9.15
-12.54
-15.41
-17.96
-20.55
-23.59
-27.30
-31.57
-36.03
-40.32
-44.21
-47.75
-51.20
-54.88
-58.99
-63.46
-68.05
-72.30
-75.76
-77.94
-78.39
-76.75
-72.79
-66.55
-58.33
-48.70
-38.33
-27.83
-17.67
-8.05
1.02
9.67
18.02
26.02
33.52
40.19
45.73
49.94
52.80
54.49
55.26
55.39
55.16
54.79
54.49
54.44
54.72
55.26
55.84
56.15
55.90
54.94
53.32
51.26
49.08
47.05
45.33
43.85
42.43
40.77
38.60
35.79
32.39
28.62
24.75
21.09
17.85
15.08
12.67
10.35
7.80
4.77
1.13
-3.05
-7.57
-12.18
-16.69
-20.90
-24.69
-27.95
-30.66
-32.96
-35.17
-37.67
-40.71
-44.28
-48.10
-51.76
-54.92
-57.50
-59.78
-62.26
-65.44
-69.54
-74.33
-79.03
-82.50
-83.56
-81.35
-75.64
-66.90
-56.10
-44.39
-32.75
-21.82
-11.87
-2.94
5.04
12.21
18.76
24.89
30.77
36.44
41.77
46.53
50.41
53.22
54.87
55.41
55.03
53.99
52.60
51.14
49.81
48.66
47.60
46.43
44.95
43.02
40.62
37.82
34.74
31.56
28.44
25.57
23.04
20.86
18.90
16.92
14.65
11.97
8.87
5.52
2.16
-1.01
-3.87
-6.39
-8.63
-10.65
-12.54
-14.41
-16.42
-18.79
-21.75
-25.39
-29.66
-34.25
-38.81
-42.92
-46.31
-48.97
-51.05
-52.95
-55.15
-58.08
-62.02
-66.81
-71.91
-76.32
-78.92
-78.78
-75.48
-69.20
-60.65
-50.72
-40.22
-29.66
-19.25
-9.07
0.85
10.44
19.55
28.04
35.72
42.50
48.25
52.91
56.48
59.01
60.56
61.21
61.03
60.18
58.90
57.56
56.48
55.84
55.56
55.38
54.94
53.93
52.17
49.68
46.56
43.05
39.45
36.09
33.23
31.02
29.44
28.22
26.99
25.37
23.09
20.07
16.47
12.62
8.94
5.73
3.10
0.86
-1.36
-3.91
-6.92
-10.23
-13.50
-16.36
-18.70
-20.66
-22.64
-25.01
-27.97
-31.49
-35.33
-39.21
-42.87
-46.22
-49.24
-52.02
-54.72
-57.51
-60.58
-64.00
-67.72
-71.38
-74.38
-75.90
-75.18
-71.67
-65.32
-56.62
-46.54
-36.11
-26.14
-17.03
-8.58
-0.39
7.96
16.52
24.95
32.66
39.12
44.07
47.60
50.03
51.64
52.59
52.89
52.57
51.85
51.16
50.95
51.46
52.56
53.74
54.38
54.04
52.66
50.52
48.08
45.74
43.70
41.93
40.21
38.29
35.96
33.13
29.91
26.52
23.26
20.39
17.99
15.91
13.88
11.54
8.63
5.06
0.95
-3.51
-8.00
-12.25
-16.06
-19.33
-22.19
-24.90
-27.73
-30.89
-34.46
-38.32
-42.33
-46.33
-50.23
-53.95
-57.44
-60.67
-63.67
-66.59
-69.70
-73.13
-76.70
-79.79
-81.40
-80.55
-76.60
-69.54
-59.98
-48.91
-37.33
-26.04
-15.51
-5.94
2.59
10.05
16.45
21.91
26.62
30.83
34.72
38.34
41.51
44.06
45.79
46.71
46.98
46.80
46.37
45.75
44.88
43.72
42.25
40.54
38.69
36.73
34.69
32.50
30.18
27.79
25.42
23.15
20.96
18.77
16.48
14.07
11.65
9.42
7.55
6.13
5.02
3.96
2.61
0.72
-1.81
-4.84
-8.15
-11.44
-14.58
-17.58
-20.58
-23.77
-27.28
-31.09
-35.04
-38.88
-42.34
-45.24
-47.59
-49.58
-51.63
-54.19
-57.60
-61.82
-66.35
-70.22
-72.31
-71.70
-68.01
-61.47
-52.78
-42.88
-32.56
-22.34
-12.49
-3.13
5.65
13.81
21.28
28.10
34.38
40.16
45.41
49.90
53.30
55.30
55.86
55.26
54.07
52.97
52.42
52.55
53.10
53.60
53.59
52.84
51.39
49.50
47.41
45.33
43.25
41.11
38.86
36.48
34.09
31.80
29.71
27.78
25.88
23.77
21.30
18.45
15.35
12.28
9.44
6.93
4.60
2.21
-0.46
-3.44
-6.58
-9.60
-12.29
-14.61
-16.71
-18.85
-21.26
-24.04
-27.12
-30.30
-33.41
-36.35
-39.16
-41.97
-44.92
-48.04
-51.31
-54.69
-58.20
-61.88
-65.68
-69.33
-72.17
-73.35
-72.00
-67.65
-60.44
-51.08
-40.68
-30.31
-20.73
-12.23
-4.64
2.43
9.34
16.24
22.96
29.13
34.37
38.48
41.50
43.65
45.14
46.02
46.24
45.82
44.92
43.93
43.33
43.44
44.25
45.39
46.27
46.41
45.56
43.85
41.63
39.35
37.29
35.52
33.84
31.96
29.59
26.67
23.35
19.94
16.66
13.57
10.53
7.29
3.70
-0.21
-4.19
-7.99
-11.43
-14.57
-17.67
-21.06
-24.98
-29.50
-34.46
-39.58
-44.54
-49.05
-52.92
-56.07
-58.53
-60.35
-61.70
-62.76
-63.85
-65.30
-67.33
-69.87
-72.47
-74.27
-74.23
-71.43
-65.44
-56.48
-45.41
-33.45
-21.77
-11.19
-1.97
6.01
13.12
19.58
25.41
30.47
34.64
38.02
40.91
43.62
46.29
48.78
50.69
51.67
51.62
50.79
49.70
48.80
48.26
47.87
47.21
45.87
43.74
41.06
38.28
35.87
34.08
32.81
31.68
30.25
28.18
25.46
22.39
19.42
16.91
14.91
13.16
11.26
8.90
6.06
3.01
0.12
-2.41
-4.64
-6.85
-9.40
-12.50
-16.17
-20.27
-24.59
-28.92
-33.11
-37.06
-40.72
-44.12
-47.32
-50.50
-53.87
-57.60
-61.85
-66.60
-71.53
-76.00
-79.05
-79.71
-77.28
-71.62
-63.31
-53.36
-42.88
-32.74
-23.33
-14.63
-6.41
1.56
9.35
16.91
24.08
30.74
36.75
42.07
46.61
50.28
52.93
54.44
54.83
54.24
53.08
51.81
50.89
50.53
50.70
51.10
51.35
51.10
50.16
48.50
46.29
43.78
41.17
38.58
36.02
33.42
30.76
28.07
25.49
23.14
21.00
18.98
16.91
14.67
12.26
9.78
7.35
5.01
2.64
0.10
-2.73
-5.84
-9.11
-12.30
-15.22
-17.73
-19.80
-21.58
-23.28
-25.21
-27.60
-30.57
-34.02
-37.78
-41.68
-45.70
-49.96
-54.62
-59.63
-64.58
-68.75
-71.25
-71.31
-68.54
-63.02
-55.27
-46.06
-36.22
-26.50
-17.42
-9.27
-2.09
4.31
10.21
15.93
21.59
27.19
32.53
37.29
41.18
44.02
45.76
46.52
46.59
46.23
45.75
45.32
45.00
44.74
44.40
43.79
42.78
41.30
39.39
37.21
34.93
32.74
30.71
28.82
26.91
24.78
22.25
19.21
15.71
11.96
8.24
4.89
2.07
-0.23
-2.19
-4.14
-6.37
-9.06
-12.26
-15.86
-19.72
-23.74
-27.89
-32.20
-36.68
-41.22
-45.56
-49.35
-52.19
-53.90
-54.55
-54.52
-54.31
-54.46
-55.28
-56.84
-59.00
-61.41
-63.60
-65.01
-65.02
-63.02
-58.64
-51.87
-43.11
-33.13
-22.75
-12.72
-3.46
4.86
12.26
18.81
24.54
29.46
33.50
36.67
39.03
40.69
41.82
42.60
43.21
43.80
44.46
45.21
45.95
46.52
46.73
46.40
45.52
44.17
42.53
40.76
39.01
37.26
35.55
33.88
32.31
30.91
29.62
28.24
26.55
24.40
21.85
19.21
16.87
15.09
13.78
12.53
10.83
8.27
4.86
0.92
-3.01
-6.49
-9.34
-11.68
-13.83
-16.14
-18.85
-21.99
-25.42
-28.98
-32.52
-36.01
-39.44
-42.81
-46.08
-49.23
-52.30
-55.50
-59.10
-63.33
-68.06
-72.64
-76.04
-77.11
-75.06
-69.77
-61.93
-52.66
-43.16
-34.20
-25.98
-18.23
-10.47
-2.34
6.17
14.76
22.91
30.10
35.99
40.49
43.74
45.98
47.47
48.38
48.86
49.03
49.00
48.91
48.96
49.20
49.59
49.94
50.02
49.64
48.75
47.48
45.97
44.34
42.54
40.45
37.93
34.98
31.79
28.64
25.82
23.45
21.55
20.02
18.72
17.50
16.23
14.74
12.90
10.65
7.98
4.99
1.81
-1.40
-4.53
-7.52
-10.30
-12.89
-15.38
-18.02
-21.06
-24.73
-29.04
-33.74
-38.38
-42.51
-45.88
-48.57
-51.00
-53.72
-57.28
-61.89
-67.31
-72.86
-77.55
-80.31
-80.31
-77.16
-71.03
-62.63
-52.94
-42.95
-33.45
-24.80
-17.00
-9.76
-2.68
4.53
11.91
19.25
26.15
32.23
37.21
40.99
43.57
45.05
45.58
45.34
44.57
43.55
42.57
41.81
41.32
40.94
40.46
39.64
38.30
36.47
34.25
31.91
29.67
27.73
26.08
24.59
23.00
21.03
18.58
15.71
12.69
9.88
7.58
5.93
4.83
3.92
2.72
0.77
-2.17
-6.02
-10.40
-14.75
-18.63
-21.84
-24.54
-27.10
-29.83
-32.85
-35.97
-38.86
-41.18
-42.84
-43.96
-44.86
-45.94
-47.57
-50.06
-53.51
-57.75
-62.28
-66.23
-68.57
-68.41
-65.20
-59.01
-50.42
-40.42
-30.05
-20.10
-10.98
-2.70
4.97
12.35
19.57
26.51
32.86
38.29
42.60
45.80
48.09
49.75
50.95
51.81
52.39
52.72
52.91
53.03
53.15
53.25
53.25
53.08
52.60
51.70
50.26
48.24
45.74
42.99
40.30
37.96
36.07
34.54
33.10
31.39
29.16
26.31
22.96
19.33
15.68
12.21
8.99
6.05
3.37
0.94
-1.24
-3.32
-5.48
-7.92
-10.73
-13.84
-17.02
-20.07
-22.88
-25.56
-28.31
-31.27
-34.43
-37.64
-40.74
-43.67
-46.50
-49.41
-52.55
-56.05
-59.99
-64.41
-69.17
-73.86
-77.74
-79.86
-79.37
-75.75
-69.07
-60.02
-49.55
-38.63
-27.89
-17.59
-7.69
1.83
10.88
19.22
26.58
32.82
38.05
42.46
46.22
49.36
51.77
53.37
54.22
54.58
54.81
55.18
55.71
56.17
56.30
55.88
54.92
53.62
52.17
50.67
49.00
46.91
44.25
41.09
37.75
34.70
32.31
30.62
29.38
28.09
26.29
23.77
20.61
17.13
13.71
10.57
7.70
4.94
2.09
-0.91
-4.02
-7.08
-9.98
-12.75
-15.55
-18.63
-22.19
-26.26
-30.72
-35.29
-39.70
-43.82
-47.59
-51.06
-54.28
-57.23
-59.92
-62.45
-65.08
-68.12
-71.83
-75.98
-79.90
-82.49
-82.57
-79.36
-72.67
-63.08
-51.61
-39.42
-27.48
-16.36
-6.27
2.87
11.20
18.83
25.75
31.82
36.93
41.07
44.38
47.11
49.48
51.51
53.04
53.76
53.51
52.36
50.71
49.05
47.79
47.04
46.62
46.13
45.11
43.24
40.44
36.89
32.95
29.07
25.58
22.65
20.20
18.01
15.89
13.81
11.80
9.94
8.15
6.20
3.80
0.77
-2.78
-6.57
-10.18
-13.35
-16.02
-18.36
-20.69
-23.36
-26.59
-30.42
-34.72
-39.19
-43.50
-47.36
-50.63
-53.36
-55.74
-58.10
-60.70
-63.83
-67.60
-71.94
-76.39
-80.15
-82.13
-81.27
-76.94
-69.19
-58.85
-47.19
-35.56
-24.90
-15.55
-7.25
0.53
8.28
16.17
23.98
31.28
37.63
42.83
46.97
50.32
53.12
55.43
57.15
58.08
58.17
57.61
56.76
55.98
55.48
55.19
54.86
54.26
53.25
51.85
50.23
48.51
46.79
45.09
43.34
41.46
39.32
36.80
33.87
30.57
27.05
23.53
20.24
17.32
14.77
12.51
10.39
8.29
6.13
3.94
1.76
-0.37
-2.50
-4.72
-7.17
-9.95
-13.14
-16.73
-20.64
-24.75
-28.89
-32.84
-36.42
-39.49
-42.13
-44.65
-47.55
-51.34
-56.23
-61.95
-67.67
-72.19
-74.43
-73.68
-69.89
-63.59
-55.59
-46.75
-37.65
-28.61
-19.73
-11.05
-2.65
5.37
12.89
19.83
26.10
31.60
36.15
39.55
41.64
42.45
42.26
41.52
40.74
40.32
40.40
40.83
41.28
41.39
40.94
39.90
38.43
36.74
35.02
33.28
31.43
29.28
26.75
23.89
20.91
18.06
15.53
13.27
11.12
8.86
6.38
3.69
0.87
-2.05
-5.11
-8.45
-12.13
-16.10
-20.13
-23.98
-27.43
-30.48
-33.25
-35.95
-38.75
-41.65
-44.52
-47.11
-49.21
-50.76
-51.96
-53.23
-55.08
-57.79
-61.24
-64.79
-67.43
-68.12
-66.13
-61.28
-53.97
-44.97
-35.11
-25.11
-15.45
-6.38
1.99
9.63
16.55
22.75
28.27
33.14
37.39
41.06
44.17
46.67
48.46
49.50
49.80
49.58
49.12
48.67
48.36
48.11
47.77
47.19
46.33
45.28
44.16
43.01
41.74
40.27
38.45
36.23
33.63
30.73
27.62
24.47
21.42
18.60
16.01
13.58
11.12
8.53
5.82
3.10
0.56
-1.72
-3.85
-6.04
-8.54
-11.52
-14.98
-18.80
-22.80
-26.89
-31.02
-35.23
-39.45
-43.54
-47.26
-50.42
-53.13
-55.81
-59.09
-63.54
-69.23
-75.56
-81.33
-85.12
-85.75
-82.70
-76.25
-67.26
-56.90
-46.26
-36.00
-26.37
-17.16
-8.04
1.23
10.63
19.85
28.44
36.00
42.29
47.26
50.91
53.34
54.62
54.95
54.66
54.18
53.87
53.95
54.38
54.92
55.26
55.14
54.42
53.09
51.26
49.03
46.57
43.99
41.38
38.80
36.26
33.72
31.15
28.50
25.81
23.12
20.56
18.18
16.02
14.04
12.13
10.16
7.98
5.49
2.66
-0.44
-3.63
-6.64
-9.28
-11.50
-13.46
-15.51
-18.05
-21.30
-25.24
-29.57
-33.89
-37.94
-41.67
-45.34
-49.36
-54.05
-59.49
-65.39
-71.14
-75.94
-78.97
-79.54
-77.28
-72.14
-64.52
-55.10
-44.76
-34.33
-24.47
-15.52
-7.48
-0.08
7.09
14.36
21.86
29.34
36.29
42.16
46.51
49.23
50.55
50.91
50.76
50.45
50.13
49.85
49.59
49.28
48.85
48.15
47.08
45.57
43.65
41.45
39.15
36.93
34.93
33.18
31.59
29.91
27.83
25.05
21.50
17.35
13.08
9.19
6.03
3.62
1.62
-0.45
-3.01
-6.24
-10.13
-14.49
-19.11
-23.88
-28.68
-33.42
-37.97
-42.12
-45.65
-48.41
-50.37
-51.70
-52.72
-53.85
-55.41
-57.57
-60.26
-63.22
-66.08
-68.40
-69.72
-69.54
-67.43
-63.12
-56.64
-48.29
-38.63
-28.30
-17.85
-7.69
1.90
10.81
18.95
26.20
32.45
37.52
41.25
43.69
45.07
45.83
46.42
47.22
48.28
49.43
50.39
50.93
51.02
50.69
49.99
48.91
47.41
45.48
43.21
40.82
38.51
36.42
34.56
32.88
31.26
29.57
27.67
25.47
22.96
20.27
17.63
15.26
13.18
11.21
8.99
6.15
2.60
-1.48
-5.68
-9.56
-12.92
-15.83
-18.56
-21.41
-24.55
-27.97
-31.52
-35.06
-38.54
-42.04
-45.72
-49.72
-54.09
-58.87
-63.99
-69.32
-74.54
-79.09
-82.19
-83.02
-80.96
-75.88
-68.18
-58.73
-48.48
-38.31
-28.68
-19.71
-11.20
-2.82
5.69
14.41
23.12
31.38
38.62
44.34
48.28
50.52
51.42
51.51
51.27
51.05
50.98
51.07
51.27
51.51
51.71
51.81
51.68
51.14
50.05
48.33
46.10
43.58
41.09
38.81
36.76
34.72
32.36
29.40
25.83
21.96
18.31
15.40
13.54
12.62
12.22
11.68
10.47
8.26
5.07
1.18
-2.96
-6.97
-10.66
-14.06
-17.36
-20.78
-24.43
-28.24
-31.97
-35.43
-38.56
-41.52
-44.62
-48.16
-52.32
-57.09
-62.33
-67.72
-72.79
-76.91
-79.29
-79.21
-76.17
-70.06
-61.26
-50.48
-38.65
-26.69
-15.38
-5.22
3.57
11.11
17.73
23.75
29.38
34.56
39.06
42.62
45.15
46.82
47.92
48.68
49.25
49.57
49.56
49.17
48.49
47.66
46.82
45.98
45.07
43.91
42.37
40.39
38.08
35.66
33.35
31.29
29.41
27.47
25.19
22.36
18.99
15.25
11.40
7.58
3.77
-0.17
-4.36
-8.79
-13.24
-17.43
-21.10
-24.20
-26.95
-29.73
-32.93
-36.80
-41.23
-45.89
-50.27
-53.96
-56.81
-58.96
-60.70
-62.39
-64.28
-66.42
-68.71
-70.78
-72.11
-72.06
-70.01
-65.60
-58.80
-49.99
-39.85
-29.21
-18.80
-9.18
-0.60
6.94
13.67
19.90
25.90
31.72
37.11
41.65
44.94
46.84
47.61
47.77
47.87
48.27
48.94
49.57
49.80
49.40
48.41
47.11
45.78
44.60
43.49
42.20
40.48
38.24
35.56
32.74
30.00
27.44
24.93
22.27
19.32
16.09
12.81
9.75
7.14
5.02
3.19
1.36
-0.83
-3.60
-6.97
-10.78
-14.79
-18.73
-22.48
-26.04
-29.53
-33.02
-36.46
-39.68
-42.53
-45.11
-47.75
-50.99
-55.34
-60.91
-67.29
-73.56
-78.51
-81.11
-80.75
-77.45
-71.68
-64.18
-55.60
-46.35
-36.61
-26.45
-16.04
-5.68
4.22
13.33
21.45
28.63
35.01
40.66
45.51
49.34
51.97
53.38
53.80
53.63
53.33
53.22
53.42
53.79
54.10
54.10
53.70
52.90
51.79
50.39
48.66
46.51
43.89
40.87
37.69
34.68
32.05
29.83
27.82
25.67
23.12
20.06
16.62
13.02
9.50
6.15
2.91
-0.35
-3.71
-7.12
-10.39
-13.28
-15.65
-17.59
-19.42
-21.63
-24.57
-28.33
-32.59
-36.79
-40.45
-43.41
-45.96
-48.68
-52.11
-56.55
-61.83
-67.41
-72.50
-76.28
-78.04
-77.30
-73.87
-67.89
-59.82
-50.29
-40.01
-29.59
-19.50
-10.02
-1.18
7.09
14.98
22.64
30.12
37.23
43.56
48.63
52.09
53.93
54.50
54.35
53.98
53.66
53.35
52.85
51.99
50.75
49.27
47.75
46.34
44.98
43.54
41.84
39.84
37.64
35.42
33.30
31.21
28.89
26.01
22.36
18.05
13.49
9.26
5.80
3.19
1.13
-0.96
-3.59
-6.94
-10.90
-15.07
-19.10
-22.83
-26.35
-29.93
-33.86
-38.26
-42.98
-47.69
-52.02
-55.68
-58.71
-61.35
-64.02
-67.09
-70.66
-74.49
-77.98
-80.33
-80.76
-78.72
-73.99
-66.75
-57.48
-46.86
-35.61
-24.38
-13.60
-3.60
5.44
13.44
20.39
26.32
31.36
35.63
39.24
42.22
44.53
46.14
47.07
47.49
47.64
47.80
48.15
48.73
49.43
50.01
50.17
49.67
48.36
46.27
43.58
40.59
37.56
34.62
31.77
28.96
26.18
23.55
21.21
19.27
17.61
15.96
13.93
11.30
8.05
4.42
0.77
-2.59
-5.60
-8.38
-11.21
-14.30
-17.72
-21.42
-25.24
-29.06
-32.87
-36.67
-40.44
-44.08
-47.52
-50.82
-54.23
-58.18
-63.02
-68.79
-75.00
-80.64
-84.50
-85.48
-82.99
-77.09
-68.47
-58.17
-47.27
-36.61
-26.64
-17.38
-8.65
-0.17
8.18
16.37
24.21
31.52
38.16
44.00
48.90
52.65
55.05
56.05
55.86
54.97
53.92
53.19
52.93
53.04
53.24
53.24
52.83
51.98
50.73
49.23
47.63
46.07
44.57
43.09
41.45
39.49
37.11
34.41
31.51
28.59
25.75
23.02
20.38
17.85
15.51
13.45
11.59
9.76
7.61
4.88
1.44
-2.49
-6.54
-10.28
-13.54
-16.45
-19.41
-22.82
-26.84
-31.30
-35.77
-39.77
-43.03
-45.58
-47.81
-50.25
-53.43
-57.64
-62.86
-68.61
-74.07
-78.12
-79.69
-78.00
-72.84
-64.64
-54.29
-42.87
-31.32
-20.23
-9.83
-0.14
8.93
17.37
25.12
32.09
38.19
43.32
47.40
50.33
52.06
52.66
52.36
51.55
50.67
50.10
50.00
50.33
50.81
51.15
51.08
50.51
49.45
47.95
46.09
43.83
41.16
38.16
35.01
31.98
29.25
26.82
24.48
21.91
18.85
15.29
11.47
7.75
4.38
1.39
-1.47
-4.52
-7.96
-11.83
-15.90
-19.97
-23.92
-27.86
-32.01
-36.57
-41.55
-46.74
-51.73
-56.06
-59.43
-61.80
-63.33
-64.35
-65.22
-66.23
-67.56
-69.28
-71.27
-73.17
-74.42
-74.31
-72.27
-67.99
-61.54
-53.30
-43.82
-33.60
-23.11
-12.70
-2.73
6.52
14.82
22.13
28.47
33.92
38.44
41.94
44.35
45.74
46.33
46.45
46.37
46.21
45.96
45.58
45.10
44.62
44.23
43.99
43.75
43.33
42.47
41.04
39.06
36.67
34.14
31.69
29.39
27.17
24.84
22.17
19.13
15.90
12.86
10.48
9.05
8.60
8.75
8.92
8.41
6.75
3.78
-0.28
-4.83
-9.19
-12.68
-14.98
-16.09
-16.46
-16.75
-17.66
-19.71
-23.11
-27.71
-33.11
-38.79
-44.36
-49.67
-54.78
-59.90
-65.12
-70.24
-74.69
-77.61
-78.17
-75.86
-70.67
-63.10
-54.00
-44.26
-34.53
-25.12
-16.01
-7.02
1.98
10.93
19.58
27.50
34.31
39.78
43.91
46.95
49.17
50.86
52.18
53.14
53.73
53.96
53.91
53.76
53.60
53.43
53.09
52.31
50.90
48.87
46.41
43.94
41.84
40.32
39.31
38.51
37.49
35.90
33.63
30.75
27.55
24.34
21.35
18.67
16.22
13.80
11.23
8.41
5.44
2.52
-0.07
-2.19
-3.92
-5.52
-7.32
-9.55
-12.25
-15.39
-18.86
-22.63
-26.71
-30.99
-35.26
-39.15
-42.30
-44.59
-46.26
-47.87
-50.12
-53.56
-58.32
-64.01
-69.71
-74.23
-76.42
-75.54
-71.41
-64.49
-55.62
-45.74
-35.61
-25.72
-16.31
-7.54
0.47
7.68
14.14
20.03
25.56
30.83
35.71
39.88
42.98
44.79
45.37
45.08
44.43
43.92
43.84
44.22
44.84
45.33
45.36
44.69
43.24
41.06
38.29
35.12
31.85
28.76
26.09
23.90
22.04
20.21
18.10
15.55
12.58
9.40
6.18
3.00
-0.23
-3.61
-7.21
-10.93
-14.58
-17.98
-21.04
-23.84
-26.58
-29.50
-32.75
-36.35
-40.16
-43.95
-47.40
-50.29
-52.54
-54.28
-55.78
-57.39
-59.39
-61.90
-64.82
-67.78
-70.13
-71.16
-70.13
-66.58
-60.45
-52.09
-42.17
-31.51
-20.86
-10.71
-1.35
7.15
14.79
21.65
27.81
33.36
38.35
42.80
46.65
49.79
52.15
53.66
54.33
54.29
53.73
52.81
51.68
50.37
48.89
47.27
45.61
44.05
42.73
41.65
40.65
39.39
37.53
34.86
31.45
27.62
23.85
20.59
18.05
16.14
14.53
12.76
10.50
7.65
4.36
0.92
-2.38
-5.41
-8.21
-10.92
-13.73
-16.73
-19.96
-23.42
-27.09
-31.00
-35.12
-39.35
-43.57
-47.60
-51.30
-54.63
-57.77
-61.06
-64.86
-69.35
-74.33
-79.07
-82.51
-83.56
-81.54
-76.41
-68.75
-59.47
-49.47
-39.29
-29.15
-19.05
-8.99
0.92
10.48
19.44
27.63
34.91
41.14
46.18
49.93
52.41
53.78
54.35
54.44
54.30
54.13
54.07
54.24
54.67
55.27
55.81
55.96
55.40
54.02
51.93
49.45
46.87
44.38
42.00
39.61
37.06
34.30
31.42
28.58
25.92
23.53
21.29
19.01
16.50
13.68
10.60
7.37
4.07
0.72
-2.74
-6.29
-9.78
-12.95
-15.59
-17.71
-19.61
-21.76
-24.61
-28.29
-32.56
-36.87
-40.68
-43.68
-46.04
-48.25
-51.00
-54.82
-59.85
-65.70
-71.56
-76.33
-79.03
-78.94
-75.83
-69.87
-61.57
-51.68
-40.98
-30.24
-20.07
-10.81
-2.51
5.10
12.41
19.72
27.11
34.37
40.99
46.48
50.44
52.80
53.73
53.63
52.94
52.03
51.15
50.44
49.96
49.70
49.59
49.52
49.25
48.52
47.09
44.92
42.19
39.24
36.48
34.11
32.12
30.25
28.16
25.62
22.55
19.10
15.58
12.27
9.36
6.85
4.56
2.18
-0.62
-4.05
-8.15
-12.71
-17.45
-22.14
-26.65
-30.98
-35.22
-39.42
-43.56
-47.57
-51.33
-54.76
-57.81
-60.44
-62.68
-64.57
-66.28
-68.10
-70.30
-72.99
-75.89
-78.29
-79.21
-77.70
-73.12
-65.43
-55.20
-43.43
-31.24
-19.50
-8.69
1.13
10.19
18.70
26.70
33.95
40.12
44.89
48.27
50.51
52.08
53.40
54.68
55.84
56.65
56.88
56.44
55.42
54.07
52.61
51.17
49.71
48.11
46.25
44.14
41.87
39.63
37.58
35.75
34.01
32.13
29.85
27.03
23.72
20.14
16.67
13.58
10.97
8.65
6.25
3.48
0.24
-3.23
-6.53
-9.33
-11.53
-13.35
-15.18
-17.43
-20.32
-23.87
-27.90
-32.13
-36.29
-40.15
-43.58
-46.63
-49.57
-52.80
-56.74
-61.64
-67.37
-73.39
-78.86
-82.74
-84.13
-82.45
-77.61
-70.03
-60.55
-50.17
-39.78
-29.97
-20.83
-12.11
-3.39
5.68
15.17
24.77
33.86
41.71
47.73
51.73
53.93
54.85
55.08
55.06
54.97
54.82
54.61
54.46
54.57
55.06
55.81
56.41
56.34
55.27
53.19
50.55
47.93
45.78
44.22
42.95
41.51
39.50
36.76
33.47
30.06
26.96
24.44
22.47
20.82
19.12
17.12
14.73
11.98
8.97
5.70
2.11
-1.82
-5.95
-9.97
-13.51
-16.43
-18.90
-21.33
-24.26
-27.95
-32.35
-37.09
-41.75
-46.06
-50.03
-53.94
-58.16
-62.98
-68.48
-74.37
-80.04
-84.64
-87.24
-87.15
-84.07
-78.18
-70.06
-60.43
-50.01
-39.34
-28.86
-18.89
-9.68
-1.35
6.11
12.86
19.09
24.87
30.17
34.79
38.56
41.36
43.23
44.32
44.85
44.96
44.78
44.43
43.99
43.55
43.12
42.62
41.88
40.71
39.06
36.97
34.66
32.34
30.12
27.97
25.73
23.28
20.60
17.81
15.09
12.55
10.22
8.01
5.83
3.65
1.48
-0.71
-3.05
-5.76
-9.00
-12.75
-16.78
-20.77
-24.50
-27.99
-31.48
-35.25
-39.37
-43.62
-47.55
-50.67
-52.83
-54.26
-55.54
-57.44
-60.49
-64.72
-69.54
-73.87
-76.50
-76.46
-73.35
-67.40
-59.28
-49.77
-39.53
-29.01
-18.43
-7.96
2.19
11.85
20.82
28.97
36.17
42.32
47.33
51.18
54.03
56.11
57.72
59.07
60.26
61.20
61.74
61.71
61.06
59.86
58.26
56.44
54.53
52.56
50.52
48.36
46.05
43.59
40.97
38.20
35.33
32.42
29.65
27.15
24.98
23.10
21.34
19.51
17.53
15.40
13.19
10.95
8.62
6.05
3.11
-0.18
-3.63
-6.97
-9.95
-12.53
-14.95
-17.52
-20.57
-24.23
-28.37
-32.66
-36.80
-40.65
-44.30
-47.95
-51.76
-55.75
-59.84
-63.92
-67.96
-71.98
-75.85
-79.10
-80.99
-80.65
-77.44
-71.25
-62.60
-52.36
-41.49
-30.65
-20.12
-9.83
0.37
10.54
20.48
29.79
37.95
44.51
49.26
52.29
53.94
54.69
54.94
54.93
54.74
54.34
53.75
53.12
52.65
52.49
52.64
52.90
52.93
52.39
51.06
48.88
45.98
42.61
38.97
35.24
31.45
27.57
23.60
19.62
15.95
12.92
10.82
9.57
8.77
7.71
5.74
2.59
-1.54
-6.05
-10.24
-13.67
-16.27
-18.28
-20.15
-22.28
-24.94
-28.25
-32.19
-36.63
-41.31
-45.90
-50.05
-53.56
-56.48
-59.14
-62.10
-65.89
-70.71
-76.19
-81.34
-84.75
-85.06
-81.42
-73.83
-63.16
-50.77
-38.05
-25.98
-14.94
-4.85
4.54
13.31
21.29
28.09
33.37
37.04
39.35
40.85
42.15
43.72
45.79
48.30
50.98
53.48
55.44
56.51
56.42
54.96
52.09
47.97
43.03
37.86
33.10
29.29
26.64
25.09
24.22
23.47
22.29
20.41
17.81
14.77
11.66
8.72
6.00
3.34
0.50
-2.63
-5.97
-9.30
-12.38
-15.23
-18.09
-21.37
-25.38
-30.15
-35.34
-40.40
-44.92
-48.74
-52.08
-55.34
-58.92
-62.95
-67.29
-71.58
-75.37
-78.25
-79.75
-79.40
-76.79
-71.66
-64.14
-54.72
-44.21
-33.45
-23.03
-13.20
-3.88
5.12
13.93
22.47
30.56
37.91
44.29
49.53
53.54
56.28
57.81
58.31
58.00
57.14
55.95
54.57
53.12
51.70
50.44
49.41
48.62
47.96
47.20
46.11
44.53
42.44
39.99
37.41
34.91
32.60
30.45
28.27
25.88
23.20
20.32
17.53
15.10
13.13
11.47
9.73
7.51
4.60
1.13
-2.52
-5.93
-8.91
-11.56
-14.24
-17.34
-21.03
-25.17
-29.39
-33.27
-36.56
-39.31
-41.83
-44.51
-47.68
-51.47
-55.88
-60.82
-66.18
-71.69
-76.81
-80.67
-82.21
-80.54
-75.28
-66.83
-56.24
-44.90
-34.03
-24.29
-15.69
-7.79
-0.01
8.01
16.27
24.40
31.88
38.30
43.48
47.53
50.80
53.59
56.04
58.05
59.37
59.84
59.51
58.71
57.85
57.30
57.11
57.00
56.52
55.25
53.00
49.86
46.14
42.18
38.21
34.29
30.38
26.46
22.58
18.91
15.63
12.83
10.43
8.15
5.62
2.61
-0.88
-4.59
-8.15
-11.24
-13.79
-16.05
-18.47
-21.51
-25.51
-30.51
-36.24
-42.21
-47.85
-52.62
-56.14
-58.23
-58.94
-58.58
-57.75
-57.28
-58.05
-60.74
-65.56
-71.93
-78.57
-83.77
-85.91
-83.94
-77.66
-67.73
-55.28
-41.60
-27.72
-14.36
-1.90
9.43
19.50
28.17
35.33
40.93
45.03
47.86
49.75
51.05
52.03
52.78
53.23
53.24
52.72
51.78
50.70
49.79
49.26
49.03
48.78
48.03
46.37
43.63
40.00
35.89
31.81
28.12
24.96
22.20
19.67
17.21
14.82
12.57
10.50
8.52
6.40
3.89
0.87
-2.53
-6.04
-9.32
-12.25
-14.92
-17.63
-20.72
-24.34
-28.39
-32.52
-36.37
-39.77
-42.81
-45.81
-49.09
-52.83
-57.07
-61.74
-66.73
-71.93
-77.02
-81.36
-83.97
-83.78
-80.02
-72.58
-62.16
-50.04
-37.62
-25.99
-15.62
-6.46
1.82
9.63
17.21
24.57
31.55
37.98
43.68
48.61
52.80
56.29
59.05
61.01
62.05
62.09
61.19
59.60
57.63
55.67
53.96
52.64
51.65
50.88
50.17
49.33
48.20
46.62
44.51
41.90
38.87
35.53
32.01
28.46
25.03
21.88
19.09
16.58
14.10
11.33
8.07
4.36
0.49
-3.06
-5.93
-8.08
-9.75
-11.48
-13.84
-17.23
-21.70
-27.00
-32.64
-38.05
-42.79
-46.66
-49.81
-52.58
-55.42
-58.71
-62.64
-67.18
-72.04
-76.66
-80.23
-81.88
-80.76
-76.43
-68.98
-59.07
-47.77
-36.19
-25.15
-15.00
-5.68
3.12
11.71
20.21
28.49
36.25
43.09
48.70
52.96
55.96
57.94
59.16
59.80
59.88
59.43
58.50
57.37
56.39
55.88
55.93
56.30
56.58
56.34
55.37
53.68
51.44
48.82
45.85
42.51
38.78
34.82
30.89
27.29
24.16
21.45
18.91
16.23
13.15
9.64
5.80
1.83
-2.05
-5.70
-9.04
-12.16
-15.24
-18.54
-22.30
-26.62
-31.41
-36.41
-41.30
-45.79
-49.77
-53.28
-56.48
-59.49
-62.39
-65.20
-68.00
-71.00
-74.51
-78.71
-83.36
-87.65
-90.31
-89.98
-85.69
-77.38
-65.91
-52.77
-39.51
-27.24
-16.28
-6.43
2.79
11.69
20.21
28.03
34.77
40.29
44.75
48.49
51.78
54.67
56.94
58.32
58.67
58.11
57.03
55.80
54.66
53.57
52.31
50.58
48.26
45.42
42.29
39.19
36.32
33.72
31.20
28.52
25.47
22.09
18.55
15.16
12.13
9.50
7.12
4.77
2.27
-0.44
-3.26
-6.08
-8.77
-11.29
-13.72
-16.22
-18.94
-21.99
-25.34
-28.86
-32.39
-35.82
-39.17
-42.55
-46.02
-49.57
-53.09
-56.51
-59.90
-63.51
-67.53
-71.83
-75.87
-78.60
-78.90
-75.97
-69.63
-60.45
-49.53
-38.09
-27.10
-17.09
-8.02
0.43
8.76
17.30
26.04
34.71
42.89
50.14
56.12
60.59
63.43
64.64
64.42
63.24
61.73
60.50
59.89
59.92
60.28
60.55
60.41
59.71
58.42
56.55
54.12
51.12
47.61
43.74
39.63
35.45
31.29
27.33
23.81
20.92
18.75
17.12
15.63
13.77
11.13
7.53
3.10
-1.80
-6.75
-11.35
-15.38
-18.73
-21.44
-23.62
-25.49
-27.30
-29.32
-31.84
-35.02
-38.84
-43.06
-47.31
-51.22
-54.68
-57.84
-61.16
-65.15
-70.03
-75.60
-81.12
-85.46
-87.45
-86.24
-81.58
-73.88
-64.05
-53.20
-42.22
-31.65
-21.66
-12.20
-3.23
5.17
12.96
20.13
26.81
33.16
39.24
44.85
49.66
53.26
55.43
56.26
56.10
55.39
54.61
54.04
53.74
53.63
53.45
52.94
51.94
50.43
48.60
46.72
44.94
43.21
41.31
39.03
36.29
33.27
30.24
27.36
24.54
21.49
17.90
13.73
9.25
4.91
1.10
-2.07
-4.81
-7.48
-10.48
-13.96
-17.95
-22.36
-27.08
-32.04
-37.19
-42.42
-47.54
-52.29
-56.39
-59.61
-62.02
-63.93
-65.90
-68.59
-72.37
-77.09
-81.95
-85.73
-87.14
-85.31
-80.02
-71.76
-61.40
-49.91
-38.09
-26.46
-15.26
-4.58
5.53
15.00
23.65
31.26
37.64
42.67
46.41
49.00
50.67
51.66
52.21
52.48
52.62
52.74
52.87
52.93
52.78
52.21
51.07
49.30
46.97
44.23
41.27
38.23
35.17
32.10
29.03
26.02
23.22
20.80
18.82
17.25
15.83
14.28
12.32
9.81
6.75
3.27
-0.44
-4.16
-7.78
-11.25
-14.60
-17.95
-21.41
-25.01
-28.71
-32.38
-35.94
-39.40
-42.88
-46.53
-50.44
-54.66
-59.20
-64.11
-69.42
-74.94
-80.05
-83.74
-84.81
-82.35
-76.10
-66.59
-54.95
-42.47
-30.17
-18.62
-7.98
1.85
10.93
19.31
27.01
34.03
40.41
46.16
51.21
55.42
58.59
60.55
61.25
60.80
59.43
57.55
55.60
53.93
52.77
52.11
51.73
51.29
50.43
48.92
46.77
44.16
41.46
38.96
36.82
34.96
33.15
31.12
28.72
25.97
23.08
20.25
17.60
15.08
12.53
9.77
6.76
3.65
0.68
-1.88
-3.91
-5.56
-7.17
-9.24
-12.20
-16.23
-21.16
-26.53
-31.79
-36.52
-40.57
-44.02
-47.06
-49.84
-52.49
-55.15
-58.11
-61.78
-66.43
-71.88
-77.29
-81.35
-82.66
-80.32
-74.31
-65.48
-55.15
-44.63
-34.76
-25.68
-17.06
-8.36
0.79
10.35
19.92
28.90
36.75
43.23
48.36
52.33
55.29
57.25
58.15
58.04
57.17
56.04
55.13
54.74
54.82
55.01
54.86
54.06
52.56
50.53
48.24
45.89
43.54
41.10
38.47
35.56
32.39
29.10
25.87
22.76
19.77
16.78
13.70
10.56
7.49
4.61
1.91
-0.83
-3.93
-7.64
-11.96
-16.64
-21.27
-25.49
-29.21
-32.55
-35.82
-39.30
-43.11
-47.13
-51.10
-54.75
-57.95
-60.76
-63.45
-66.35
-69.69
-73.51
-77.54
-81.23
-83.84
-84.60
-82.90
-78.39
-71.10
-61.48
-50.25
-38.25
-26.26
-14.82
-4.24
5.38
14.05
21.77
28.63
34.63
39.82
44.16
47.60
50.06
51.54
52.11
52.00
51.52
50.93
50.41
49.95
49.44
48.68
47.52
45.88
43.83
41.47
38.95
36.38
33.83
31.36
29.02
26.90
25.02
23.30
21.48
19.23
16.33
12.83
9.11
5.73
3.16
1.53
0.53
-0.41
-1.87
-4.13
-7.10
-10.47
-13.92
-17.29
-20.67
-24.27
-28.22
-32.45
-36.70
-40.65
-44.08
-47.04
-49.87
-53.04
-57.03
-62.01
-67.76
-73.59
-78.52
-81.51
-81.75
-78.93
-73.31
-65.57
-56.52
-46.86
-36.95
-26.90
-16.66
-6.29
3.99
13.88
23.11
31.53
39.04
45.61
51.13
55.42
58.37
60.04
60.67
60.62
60.25
59.75
59.16
58.40
57.39
56.14
54.67
53.02
51.24
49.33
47.30
45.19
43.01
40.80
38.54
36.26
34.02
31.89
29.93
28.08
26.23
24.26
22.09
19.78
17.41
15.06
12.70
10.24
7.61
4.78
1.88
-0.91
-3.46
-5.73
-7.78
-9.83
-12.09
-14.73
-17.84
-21.38
-25.18
-29.08
-32.95
-36.77
-40.56
-44.43
-48.43
-52.63
-57.11
-62.00
-67.26
-72.66
-77.59
-81.16
-82.45
-80.75
-75.83
-68.05
-58.22
-47.40
-36.56
-26.38
-17.12
-8.64
-0.54
7.50
15.59
23.44
30.53
36.35
40.60
43.40
45.12
46.21
46.98
47.57
47.94
48.04
47.86
47.47
46.93
46.37
45.84
45.33
44.77
44.02
42.93
41.42
39.49
37.18
34.52
31.46
27.94
23.92
19.58
15.27
11.45
8.42
6.23
4.53
2.77
0.38
-3.01
-7.42
-12.57
-17.94
-23.04
-27.54
-31.33
-34.59
-37.56
-40.56
-43.70
-46.97
-50.20
-53.19
-55.77
-57.81
-59.32
-60.36
-61.11
-61.87
-62.95
-64.59
-66.76
-68.97
-70.38
-69.92
-66.74
-60.46
-51.37
-40.32
-28.41
-16.65
-5.76
3.96
12.46
19.85
26.25
31.74
36.40
40.37
43.83
46.97
49.90
52.61
54.96
56.76
57.84
58.15
57.76
56.87
55.73
54.52
53.30
51.97
50.38
48.37
45.91
43.16
40.41
37.96
36.01
34.54
33.28
31.88
29.98
27.44
24.35
20.92
17.43
14.04
10.77
7.54
4.27
0.95
-2.28
-5.22
-7.72
-9.80
-11.68
-13.76
-16.38
-19.77
-23.89
-28.47
-33.18
-37.71
-41.92
-45.83
-49.53
-53.06
-56.47
-59.79
-63.14
-66.71
-70.62
-74.74
-78.51
-81.05
-81.42
-78.92
-73.50
-65.67
-56.38
-46.55
-36.78
-27.20
-17.60
-7.70
2.56
12.93
22.84
31.68
38.99
44.68
48.92
52.06
54.41
56.16
57.40
58.16
58.50
58.53
58.36
58.11
57.84
57.58
57.26
56.80
56.06
54.94
53.36
51.38
49.11
46.67
44.12
41.45
38.61
35.55
32.36
29.20
26.17
23.28
20.35
17.09
13.28
8.90
4.19
-0.46
-4.68
-8.27
-11.30
-13.94
-16.33
-18.51
-20.42
-22.02
-23.47
-25.09
-27.32
-30.44
-34.42
-38.89
-43.29
-47.11
-50.18
-52.72
-55.24
-58.34
-62.41
-67.46
-73.00
-78.19
-82.07
-83.77
-82.75
-78.87
-72.34
-63.69
-53.52
-42.44
-31.05
-19.86
-9.34
0.17
8.46
15.53
21.57
26.86
31.67
36.10
40.12
43.50
45.99
47.40
47.77
47.34
46.50
45.60
44.87
44.30
43.78
43.17
42.39
41.40
40.11
38.35
35.87
32.53
28.46
24.06
19.93
16.53
14.07
12.31
10.84
9.18
7.08
4.55
1.79
-0.97
-3.58
-6.06
-8.52
-11.04
-13.67
-16.35
-19.02
-21.70
-24.56
-27.76
-31.45
-35.53
-39.71
-43.61
-46.83
-49.19
-50.76
-51.80
-52.75
-54.09
-56.20
-59.17
-62.74
-66.16
-68.44
-68.62
-66.03
-60.62
-52.84
-43.46
-33.24
-22.82
-12.55
-2.67
6.61
15.09
22.66
29.33
35.25
40.58
45.37
49.58
53.02
55.53
57.04
57.64
57.52
56.93
56.08
55.13
54.17
53.21
52.16
50.92
49.38
47.54
45.42
43.11
40.73
38.31
35.87
33.43
30.94
28.39
25.69
22.82
19.76
16.56
13.35
10.28
7.44
4.87
2.51
0.21
-2.16
-4.68
-7.32
-9.96
-12.45
-14.61
-16.40
-17.91
-19.39
-21.14
-23.38
-26.19
-29.43
-32.88
-36.39
-39.93
-43.57
-47.48
-51.82
-56.67
-61.88
-67.13
-71.86
-75.37
-76.96
-76.06
-72.45
-66.26
-57.99
-48.35
-38.12
-27.94
-18.20
-9.04
-0.36
8.04
16.32
24.46
32.29
39.48
45.70
50.67
54.28
56.62
57.90
58.43
58.53
58.40
58.16
57.91
57.68
57.56
57.59
57.72
57.78
57.46
56.48
54.70
52.26
49.48
46.73
44.18
41.79
39.23
36.23
32.64
28.54
24.16
19.80
15.63
11.69
7.95
4.37
0.92
-2.40
-5.64
-8.88
-12.27
-15.99
-20.28
-25.31
-31.10
-37.52
-44.12
-50.33
-55.58
-59.56
-62.38
-64.53
-66.71
-69.56
-73.49
-78.45
-84.03
-89.42
-93.66
-95.74
-94.80
-90.34
-82.33
-71.32
-58.33
-44.63
-31.39
-19.42
-8.91
0.44
9.19
17.84
26.49
34.78
42.04
47.64
51.33
53.34
54.25
54.73
55.26
55.98
56.69
57.06
56.82
55.87
54.32
52.32
50.03
47.53
44.77
41.75
38.52
35.27
32.30
29.87
28.08
26.77
25.55
23.99
21.77
18.89
15.62
12.33
9.34
6.71
4.26
1.78
-0.91
-3.76
-6.58
-9.10
-11.18
-12.87
-14.50
-16.57
-19.52
-23.59
-28.65
-34.28
-39.94
-45.16
-49.74
-53.80
-57.62
-61.52
-65.70
-70.07
-74.28
-77.78
-79.93
-80.14
-78.04
-73.55
-66.80
-58.18
-48.13
-37.16
-25.79
-14.50
-3.67
6.47
15.89
24.70
33.00
40.81
47.94
54.07
58.85
61.99
63.44
63.38
62.14
60.19
57.97
55.88
54.17
52.97
52.29
52.04
52.06
52.08
51.77
50.81
49.01
46.43
43.39
40.33
37.62
35.42
33.54
31.64
29.35
26.49
23.14
19.62
16.35
13.68
11.76
10.47
9.49
8.40
6.85
4.69
1.96
-1.10
-4.27
-7.38
-10.42
-13.38
-16.29
-19.06
-21.63
-24.02
-26.39
-29.04
-32.20
-35.98
-40.25
-44.71
-49.09
-53.34
-57.69
-62.49
-67.89
-73.65
-78.93
-82.58
-83.51
-81.08
-75.37
-67.06
-57.14
-46.60
-36.05
-25.78
-15.80
-6.09
3.30
12.19
20.38
27.75
34.21
39.81
44.59
48.55
51.63
53.76
54.90
55.08
54.48
53.35
52.06
50.87
49.90
49.12
48.35
47.39
46.12
44.56
42.80
41.00
39.17
37.30
35.28
32.99
30.38
27.51
24.44
21.26
17.99
14.60
11.04
7.29
3.45
-0.27
-3.64
-6.55
-9.07
-11.50
-14.15
-17.31
-21.05
-25.24
-29.63
-34.04
-38.33
-42.48
-46.51
-50.42
-54.15
-57.63
-60.77
-63.56
-66.10
-68.62
-71.27
-74.01
-76.46
-77.90
-77.50
-74.63
-69.13
-61.39
-52.16
-42.25
-32.26
-22.40
-12.65
-2.91
6.79
16.20
24.92
32.57
38.87
43.73
47.27
49.68
51.19
51.96
52.11
51.83
51.36
51.02
50.99
51.20
51.28
50.71
49.11
46.46
43.17
39.86
37.05
34.93
33.37
31.99
30.50
28.73
26.67
24.41
22.02
19.51
16.96
14.47
12.23
10.38
8.92
7.72
6.53
5.03
2.93
0.13
-3.30
-7.14
-11.11
-14.97
-18.64
-22.18
-25.75
-29.49
-33.42
-37.40
-41.28
-44.90
-48.29
-51.71
-55.57
-60.27
-65.98
-72.46
-78.93
-84.25
-87.18
-86.83
-82.87
-75.68
-66.15
-55.41
-44.46
-33.99
-24.28
-15.28
-6.77
1.52
9.79
18.07
26.22
33.94
40.86
46.58
50.86
53.60
54.96
55.26
54.98
54.61
54.49
54.78
55.32
55.82
55.89
55.27
53.89
51.93
49.71
47.54
45.58
43.78
41.94
39.84
37.35
34.57
31.73
29.08
26.69
24.48
22.23
19.84
17.39
15.11
13.25
11.81
10.44
8.61
5.88
2.17
-2.07
-6.19
-9.64
-12.31
-14.60
-17.09
-20.26
-24.16
-28.48
-32.74
-36.61
-40.11
-43.54
-47.30
-51.68
-56.76
-62.34
-68.05
-73.31
-77.51
-79.95
-80.09
-77.58
-72.45
-65.02
-55.86
-45.65
-34.99
-24.35
-14.06
-4.35
4.60
12.62
19.61
25.57
30.58
34.75
38.19
40.97
43.14
44.71
45.74
46.30
46.50
46.32
45.80
44.91
43.71
42.31
40.84
39.44
38.15
36.97
35.84
34.67
33.30
31.53
29.23
26.33
22.97
19.42
15.98
12.87
10.17
7.79
5.53
3.19
0.56
-2.54
-6.19
-10.34
-14.79
-19.20
-23.23
-26.66
-29.55
-32.18
-34.98
-38.21
-41.89
-45.70
-49.14
-51.77
-53.38
-54.15
-54.60
-55.41
-57.14
-60.07
-63.96
-68.10
-71.50
-73.15
-72.28
-68.57
-62.17
-53.62
-43.68
-33.15
-22.72
-12.88
-3.86
4.35
11.96
19.18
26.15
32.82
38.99
44.42
48.87
52.29
54.73
56.35
57.29
57.66
57.47
56.76
55.58
54.12
52.63
51.36
50.43
49.77
49.23
48.56
47.56
46.16
44.41
42.45
40.33
38.06
35.47
32.38
28.71
24.57
20.33
16.46
13.38
11.20
9.68
8.24
6.27
3.37
-0.46
-4.86
-9.29
-13.30
-16.69
-19.53
-22.14
-24.88
-28.06
-31.84
-36.16
-40.84
-45.55
-50.00
-53.97
-57.46
-60.66
-63.90
-67.57
-71.89
-76.82
-81.99
-86.64
-89.74
-90.24
-87.31
-80.67
-70.70
-58.29
-44.68
-31.03
-18.17
-6.51
3.94
13.35
21.96
29.89
37.10
43.45
48.74
52.86
55.90
58.03
59.56
60.72
61.64
62.32
62.72
62.85
62.73
62.43
61.88
60.97
59.54
57.50
54.93
52.06
49.16
46.43
43.98
41.80
39.83
37.98
36.12
34.13
31.93
29.49
26.88
24.21
21.50
18.71
15.73
12.48
9.02
5.48
1.99
-1.36
-4.59
-7.74
-10.81
-13.80
-16.72
-19.70
-22.95
-26.69
-31.00
-35.81
-40.84
-45.70
-50.08
-53.80
-56.98
-59.98
-63.40
-67.76
-73.30
-79.67
-85.95
-90.82
-92.96
-91.54
-86.36
-77.89
-67.05
-54.90
-42.43
-30.33
-19.05
-8.74
0.66
9.26
17.16
24.34
30.73
36.22
40.75
44.32
46.98
48.73
49.60
49.67
49.18
48.43
47.75
47.37
47.26
47.19
46.80
45.77
43.96
41.43
38.41
35.19
32.05
29.14
26.49
24.07
21.81
19.69
17.71
15.89
14.16
12.40
10.41
8.04
5.23
2.05
-1.38
-4.94
-8.55
-12.23
-16.04
-20.04
-24.26
-28.64
-33.06
-37.32
-41.21
-44.53
-47.20
-49.22
-50.74
-51.99
-53.25
-54.83
-57.01
-60.03
-63.93
-68.45
-72.93
-76.35
-77.54
-75.59
-70.14
-61.57
-50.80
-39.06
-27.39
-16.38
-6.15
3.48
12.77
21.77
30.36
38.32
45.44
51.63
56.84
61.02
64.05
65.80
66.26
65.59
64.18
62.53
61.07
59.97
59.15
58.29
57.09
55.34
53.07
50.46
47.80
45.28
43.02
40.95
38.95
36.88
34.68
32.33
29.93
27.47
24.95
22.25
19.34
16.31
13.38
10.79
8.69
7.00
5.45
3.65
1.30
-1.69
-5.22
-9.01
-12.84
-16.56
-20.19
-23.84
-27.62
-31.55
-35.55
-39.49
-43.22
-46.69
-49.96
-53.18
-56.52
-60.15
-64.23
-68.88
-74.11
-79.65
-84.88
-88.82
-90.35
-88.58
-83.20
-74.60
-63.75
-51.80
-39.69
-28.00
-16.91
-6.41
3.52
12.83
21.38
29.12
36.03
42.14
47.46
51.92
55.44
57.95
59.52
60.39
60.85
61.20
61.56
61.88
61.96
61.52
60.44
58.73
56.58
54.20
51.83
49.59
47.55
45.73
44.09
42.51
40.77
38.63
35.93
32.71
29.20
25.72
22.51
19.63
16.97
14.28
11.35
8.05
4.44
0.63
-3.18
-6.86
-10.32
-13.59
-16.79
-20.03
-23.41
-26.96
-30.61
-34.37
-38.24
-42.30
-46.59
-50.98
-55.22
-58.99
-62.11
-64.73
-67.31
-70.50
-74.74
-79.95
-85.40
-89.80
-91.73
-90.16
-84.80
-76.19
-65.39
-53.58
-41.64
-30.04
-18.87
-8.07
2.34
12.18
21.13
28.90
35.32
40.39
44.27
47.16
49.27
50.70
51.51
51.73
51.44
50.78
49.99
49.24
48.60
47.98
47.13
45.79
43.83
41.32
38.45
35.47
32.57
29.80
27.16
24.64
22.26
20.12
18.28
16.72
15.35
14.00
12.51
10.76
8.68
6.26
3.47
0.26
-3.40
-7.45
-11.70
-15.83
-19.44
-22.32
-24.53
-26.47
-28.73
-31.80
-35.86
-40.62
-45.56
-50.09
-53.89
-57.00
-59.83
-62.87
-66.47
-70.67
-75.07
-78.93
-81.33
-81.44
-78.69
-72.94
-64.53
-54.11
-42.51
-30.55
-18.90
-8.03
1.83
10.71
18.81
26.41
33.73
40.82
47.50
53.46
58.41
62.15
64.62
65.80
65.72
64.44
62.20
59.42
56.70
54.60
53.39
52.99
52.90
52.60
51.70
50.12
48.06
45.76
43.33
40.73
37.90
34.86
31.78
28.94
26.44
24.16
21.82
19.08
15.88
12.43
9.17
6.48
4.47
2.89
1.30
-0.72
-3.35
-6.47
-9.79
-13.09
-16.28
-19.49
-22.87
-26.51
-30.32
-34.08
-37.63
-40.91
-44.01
-47.12
-50.40
-53.94
-57.76
-61.91
-66.46
-71.40
-76.53
-81.32
-84.93
-86.43
-85.03
-80.38
-72.65
-62.53
-51.04
-39.18
-27.70
-16.99
-7.05
2.36
11.43
20.19
28.49
36.00
42.42
47.57
51.46
54.28
56.34
57.91
59.14
60.06
60.53
60.45
59.79
58.74
57.51
56.28
55.05
53.66
51.92
49.77
47.37
44.94
42.65
40.55
38.53
36.39
34.05
31.48
28.70
25.65
22.25
18.40
14.17
9.75
5.44
1.46
-2.09
-5.29
-8.31
-11.33
-14.46
-17.71
-21.09
-24.56
-28.15
-31.91
-35.88
-40.07
-44.42
-48.81
-53.04
-56.88
-60.21
-63.04
-65.60
-68.27
-71.44
-75.31
-79.71
-84.02
-87.29
-88.46
-86.71
-81.74
-73.84
-63.78
-52.56
-41.03
-29.77
-18.94
-8.47
1.79
11.87
21.62
30.65
38.50
44.79
49.36
52.29
53.91
54.62
54.82
54.73
54.47
54.09
53.61
53.11
52.60
52.04
51.22
49.90
47.91
45.28
42.28
39.37
36.89
35.01
33.54
32.07
30.19
27.69
24.69
21.54
18.63
16.18
14.12
12.22
10.18
7.82
5.15
2.29
-0.66
-3.68
-6.82
-10.13
-13.61
-17.15
-20.64
-24.05
-27.39
-30.75
-34.21
-37.77
-41.42
-45.12
-48.87
-52.72
-56.80
-61.21
-66.04
-71.21
-76.38
-80.87
-83.72
-83.99
-81.04
-74.80
-65.87
-55.24
-43.96
-32.79
-22.07
-11.81
-1.91
7.67
16.83
25.44
33.35
40.47
46.77
52.17
56.59
59.94
62.15
63.21
63.22
62.38
61.03
59.56
58.30
57.42
56.83
56.22
55.27
53.77
51.75
49.44
47.19
45.18
43.47
41.95
40.43
38.74
36.78
34.48
31.82
28.78
25.40
21.84
18.38
15.34
13.01
11.46
10.47
9.57
8.16
5.82
2.47
-1.60
-5.81
-9.68
-13.01
-15.97
-18.99
-22.46
-26.59
-31.20
-35.90
-40.23
-43.81
-46.61
-48.91
-51.25
-54.22
-58.29
-63.52
-69.54
-75.55
-80.50
-83.41
-83.51
-80.47
-74.41
-65.83
-55.52
-44.35
-33.07
-22.22
-12.05
-2.56
6.29
14.53
22.10
28.85
34.69
39.54
43.42
46.34
48.37
49.56
50.03
49.99
49.66
49.25
48.88
48.58
48.31
48.02
47.60
47.00
46.14
44.92
43.30
41.31
39.07
36.74
34.48
32.34
30.28
28.14
25.73
22.87
19.55
15.88
12.12
8.51
5.21
2.18
-0.78
-3.93
-7.47
-11.39
-15.51
-19.50
-23.12
-26.29
-29.15
-32.03
-35.20
-38.78
-42.64
-46.51
-50.10
-53.24
-55.88
-58.03
-59.70
-60.88
-61.65
-62.32
-63.42
-65.45
-68.54
-72.22
-75.37
-76.55
-74.59
-68.98
-60.10
-49.00
-36.99
-25.18
-14.14
-3.94
5.63
14.81
23.60
31.79
39.04
45.09
49.89
53.61
56.53
58.85
60.55
61.42
61.24
60.02
58.09
56.01
54.36
53.45
53.20
53.17
52.85
51.86
50.07
47.65
44.81
41.78
38.69
35.63
32.68
29.92
27.48
25.41
23.66
22.03
20.25
18.04
15.24
11.95
8.45
5.15
2.36
0.18
-1.56
-3.22
-5.15
-7.50
-10.20
-12.99
-15.60
-17.90
-19.99
-22.14
-24.63
-27.63
-31.18
-35.20
-39.58
-44.27
-49.27
-54.59
-60.14
-65.80
-71.36
-76.60
-81.24
-84.84
-86.83
-86.57
-83.62
-77.91
-69.86
-60.24
-49.86
-39.39
-29.16
-19.27
-9.74
-0.54
8.29
16.80
25.03
32.95
40.39
47.01
52.44
56.43
59.03
60.53
61.33
61.75
61.89
61.69
61.11
60.19
59.12
58.13
57.34
56.70
56.01
54.99
53.45
51.35
48.84
46.15
43.46
40.75
37.89
34.69
31.09
27.30
23.67
20.56
18.13
16.25
14.58
12.73
10.51
7.92
5.11
2.18
-0.90
-4.26
-8.03
-12.13
-16.31
-20.22
-23.60
-26.43
-28.93
-31.42
-34.22
-37.49
-41.22
-45.30
-49.53
-53.76
-57.87
-61.82
-65.72
-69.79
-74.26
-79.16
-84.15
-88.43
-90.87
-90.39
-86.32
-78.71
-68.33
-56.32
-43.84
-31.70
-20.31
-9.72
0.09
9.08
17.14
24.17
30.17
35.27
39.61
43.34
46.50
49.03
50.81
51.73
51.70
50.77
49.10
46.99
44.76
42.69
40.85
39.12
37.30
35.25
32.97
30.58
28.23
25.97
23.70
21.33
18.80
16.22
13.76
11.56
9.67
7.92
6.09
3.96
1.43
-1.50
-4.70
-8.02
-11.31
-14.55
-17.75
-21.01
-24.41
-27.94
-31.51
-34.97
-38.18
-41.04
-43.51
-45.58
-47.21
-48.37
-49.10
-49.69
-50.66
-52.67
-56.22
-61.33
-67.31
-72.88
-76.48
-76.84
-73.38
-66.36
-56.72
-45.68
-34.27
-23.12
-12.43
-2.09
8.02
17.87
27.26
35.91
43.53
49.97
55.14
59.08
61.80
63.35
63.80
63.35
62.29
61.03
59.92
59.18
58.80
58.57
58.17
57.31
55.93
54.06
51.95
49.80
47.74
45.73
43.66
41.38
38.86
36.16
33.40
30.71
28.14
25.67
23.19
20.59
17.75
14.63
11.27
7.74
4.12
0.50
-3.05
-6.43
-9.53
-12.23
-14.48
-16.40
-18.24
-20.35
-23.05
-26.49
-30.55
-34.96
-39.39
-43.54
-47.23
-50.45
-53.29
-56.02
-59.01
-62.66
-67.27
-72.87
-79.05
-84.95
-89.39
-91.18
-89.49
-84.14
-75.72
-65.30
-54.13
-43.14
-32.72
-22.78
-12.92
-2.84
7.49
17.80
27.67
36.65
44.43
50.82
55.74
59.13
61.05
61.70
61.42
60.67
59.88
59.33
59.19
59.42
59.87
60.30
60.36
59.74
58.28
55.94
52.98
49.78
46.75
44.12
41.90
39.78
37.45
34.62
31.23
27.40
23.45
19.63
16.21
13.29
10.84
8.71
6.65
4.41
1.74
-1.49
-5.29
-9.50
-13.84
-17.98
-21.64
-24.69
-27.29
-29.73
-32.41
-35.61
-39.40
-43.61
-47.90
-51.99
-55.76
-59.35
-63.06
-67.20
-71.99
-77.36
-82.97
-88.09
-91.82
-93.23
-91.57
-86.53
-78.31
-67.60
-55.36
-42.58
-30.07
-18.31
-7.51
2.35
11.35
19.55
27.00
33.72
39.73
45.01
49.46
52.91
55.21
56.26
56.17
55.27
53.98
52.70
51.62
50.69
49.68
48.37
46.60
44.37
41.81
39.11
36.45
33.92
31.56
29.33
27.14
24.91
22.61
20.25
17.87
15.54
13.27
11.08
9.00
7.05
5.17
3.22
0.96
-1.87
-5.36
-9.33
-13.42
-17.20
-20.41
-23.18
-25.86
-28.94
-32.70
-37.09
-41.74
-46.10
-49.71
-52.34
-54.03
-55.16
-56.20
-57.71
-60.12
-63.63
-68.06
-72.80
-76.89
-79.17
-78.64
-74.67
-67.30
-57.12
-45.11
-32.28
-19.46
-7.21
4.19
14.55
23.78
31.89
39.01
45.38
51.18
56.42
60.89
64.29
66.41
67.28
67.23
66.65
65.87
64.94
63.79
62.32
60.54
58.66
56.86
55.27
53.84
52.35
50.62
48.47
45.93
43.15
40.36
37.78
35.51
33.52
31.60
29.53
27.16
24.46
21.55
18.57
15.58
12.58
9.58
6.63
3.86
1.39
-0.82
-2.93
-5.22
-7.91
-11.04
-14.47
-17.94
-21.26
-24.43
-27.62
-31.10
-35.10
-39.65
-44.54
-49.35
-53.61
-56.99
-59.49
-61.52
-63.77
-66.93
-71.43
-77.08
-83.11
-88.31
-91.40
-91.43
-88.03
-81.42
-72.30
-61.49
-49.79
-37.80
-25.92
-14.44
-3.63
6.35
15.44
23.71
31.32
38.44
45.12
51.17
56.24
59.99
62.23
63.05
62.84
62.21
61.67
61.57
61.84
62.21
62.21
61.51
60.03
57.94
55.55
53.10
50.65
48.08
45.31
42.30
39.20
36.22
33.48
30.88
28.20
25.19
21.77
18.13
14.57
11.34
8.47
5.70
2.69
-0.89
-5.09
-9.76
-14.55
-19.14
-23.33
-27.17
-30.90
-34.79
-39.07
-43.75
-48.67
-53.51
-58.07
-62.26
-66.14
-69.89
-73.70
-77.66
-81.74
-85.72
-89.20
-91.54
-91.99
-89.83
-84.61
-76.30
-65.38
-52.68
-39.17
-25.73
-13.02
-1.36
9.15
18.62
27.22
35.09
42.26
48.58
53.80
57.74
60.39
61.92
62.58
62.57
61.90
60.55
58.51
56.03
53.49
51.30
49.64
48.32
46.89
44.86
41.98
38.30
34.21
30.19
26.59
23.53
20.90
18.48
16.10
13.69
11.34
9.15
7.18
5.33
3.41
1.27
-1.17
-3.82
-6.56
-9.36
-12.28
-15.46
-19.08
-23.19
-27.75
-32.61
-37.54
-42.29
-46.61
-50.37
-53.61
-56.64
-60.00
-64.29
-69.80
-76.33
-83.00
-88.48
-91.32
-90.47
-85.63
-77.26
-66.38
-54.19
-41.69
-29.45
-17.68
-6.38
4.42
14.59
23.95
32.41
40.01
46.91
53.15
58.52
62.65
65.23
66.20
65.93
65.06
64.21
63.73
63.60
63.47
62.96
61.78
59.90
57.43
54.67
51.88
49.26
46.93
44.82
42.75
40.56
38.17
35.65
33.18
30.86
28.62
26.23
23.44
20.21
16.73
13.41
10.55
8.20
6.07
3.70
0.72
-2.94
-7.01
-11.03
-14.60
-17.53
-19.93
-22.10
-24.32
-26.79
-29.58
-32.64
-35.97
-39.55
-43.33
-47.23
-51.13
-54.99
-58.90
-63.08
-67.74
-72.93
-78.26
-82.98
-86.06
-86.53
-83.73
-77.61
-68.70
-57.98
-46.52
-35.21
