1480548623.00
64.000000
-0.00
-0.00
-0.00
-0.00
-0.00
-0.00
-0.00
-0.00
-0.00
-0.00
0.01
0.01
0.01
0.00
-0.03
-0.06
-0.06
-0.01
0.13
0.37
0.70
1.05
1.38
1.63
1.83
2.00
2.23
2.56
3.07
3.69
4.36
4.96
5.45
5.81
6.14
6.54
7.12
7.98
9.02
10.06
10.91
11.45
11.75
12.02
12.59
13.74
15.74
18.33
21.07
23.47
25.21
26.36
27.42
29.11
32.04
36.71
42.64
48.94
54.58
58.87
61.85
64.37
67.70
72.92
80.83
90.70
101.10
110.37
117.37
122.08
125.67
130.34
135.62
144.19
156.41
171.73
188.07
201.77
207.94
201.72
180.05
143.20
95.74
44.46
-3.65
-44.28
-77.32
-106.39
-136.65
-172.11
-213.96
-260.15
-307.42
-352.50
-393.24
-428.48
-457.27
-478.12
-488.84
-487.39
-472.66
-445.54
-408.53
-365.00
-318.15
-270.22
-222.28
-174.58
-127.25
-80.73
-36.22
4.70
40.48
70.18
93.71
111.80
125.66
136.47
145.05
151.65
156.12
158.18
157.74
155.02
150.58
145.11
139.24
133.34
127.52
121.68
115.65
109.33
102.74
96.02
89.35
82.91
76.78
70.98
65.47
60.21
55.18
50.35
45.76
41.42
37.34
33.51
29.94
26.62
23.54
20.70
18.10
15.73
13.60
11.69
9.99
8.50
7.21
6.08
5.11
4.29
3.60
3.01
2.52
2.11
1.78
1.51
1.28
1.10
0.95
0.83
0.73
0.65
0.58
0.53
0.48
0.44
0.41
0.38
0.36
0.34
0.32
0.30
0.29
0.27
0.26
0.24
0.23
0.22
0.22
0.20
0.20
0.19
0.18
0.17
0.17
0.16
0.16
0.15
0.14
0.14
0.13
0.13
0.12
0.12
0.12
0.11
0.11
0.11
0.10
0.10
0.10
0.09
0.09
0.09
0.09
0.08
0.08
0.08
0.07
0.07
0.07
0.07
0.07
0.07
0.07
0.08
0.09
0.11
0.13
0.16
0.19
0.23
0.28
0.32
0.37
0.42
0.47
0.53
0.57
0.63
0.68
0.73
0.79
0.84
0.91
0.97
1.05
1.14
1.23
1.33
1.46
1.59
1.75
1.92
2.12
2.34
2.58
2.86
3.16
3.49
3.85
4.25
4.69
5.15
5.66
6.20
6.77
7.39
8.06
8.79
9.58
10.40
11.23
12.03
12.79
13.54
14.34
15.28
16.40
17.70
19.13
20.57
21.90
23.01
23.81
24.29
24.34
23.94
22.92
21.10
18.28
14.35
9.28
3.32
-3.15
-9.62
-15.60
-20.76
-24.97
-28.32
-31.01
-33.14
-34.62
-35.16
-34.41
-32.13
-28.50
-24.14
-19.97
-16.88
-15.31
-15.07
-15.32
-14.96
-13.17
-9.81
-5.64
-1.98
-0.17
-0.91
-3.77
-7.47
-10.29
-10.88
-8.78
-4.69
0.03
3.77
5.20
3.54
-1.41
-8.75
-15.91
-18.73
-12.32
6.74
37.94
75.66
110.52
132.58
135.91
121.30
95.80
69.34
50.37
42.64
45.02
53.78
65.09
76.98
88.61
99.08
106.55
108.68
103.67
91.24
75.24
59.75
47.35
37.06
25.15
7.78
-16.16
-43.65
-68.59
-84.42
-87.49
-78.25
-61.42
-43.30
-29.25
-22.39
-23.87
-33.48
-50.03
-71.71
-95.81
-120.44
-142.97
-159.59
-166.32
-161.07
-144.66
-120.33
-92.39
-64.53
-42.08
-27.89
-20.34
-14.38
-5.10
9.94
30.73
55.83
83.31
106.19
119.00
121.65
118.92
115.73
113.63
110.64
102.91
86.48
51.90
-6.84
-87.55
-181.22
-279.09
-377.10
-474.95
-572.49
-622.76
-590.76
-478.28
-322.20
-162.63
-24.18
83.12
159.26
210.90
247.19
268.23
270.05
250.11
210.91
159.02
103.31
53.80
18.88
2.47
-2.31
-5.44
-13.15
-24.98
-37.07
-45.93
-50.06
-50.40
-49.58
-53.71
-66.54
-85.83
-103.65
-110.74
-101.40
-75.71
-39.22
-0.51
30.74
48.80
54.18
52.33
49.61
49.73
53.20
58.28
62.88
65.48
66.10
65.80
65.89
66.65
67.26
66.40
63.15
57.64
50.91
44.48
39.54
36.63
35.30
34.58
33.29
30.75
26.87
22.20
17.58
13.82
11.71
11.57
13.01
14.97
15.78
13.48
6.33
-6.66
-25.41
-48.02
-71.17
-90.75
-102.87
-104.93
-96.19
-77.65
-51.29
-21.29
8.02
32.63
49.42
56.89
55.69
48.70
40.02
33.69
31.84
34.41
39.48
44.66
48.42
50.45
51.06
50.51
48.47
44.51
38.70
31.93
25.41
20.04
15.93
12.40
8.64
4.32
-0.06
-3.27
-4.00
-1.52
4.11
12.32
22.35
33.59
45.45
57.00
66.83
73.31
75.54
74.20
71.85
72.07
77.80
89.75
105.80
121.85
133.59
138.15
134.86
124.89
110.21
92.83
74.66
57.89
45.25
39.49
42.40
53.45
69.64
86.31
99.02
105.18
104.71
99.23
90.62
79.93
67.29
52.81
37.35
22.45
9.35
-2.01
-13.16
-26.10
-41.80
-59.47
-76.98
-92.37
-105.25
-117.19
-130.85
-148.87
-172.89
-203.47
-240.25
-282.01
-326.39
-369.43
-405.54
-428.59
-433.59
-418.23
-383.74
-334.26
-275.21
-211.55
-146.69
-82.37
-19.45
41.19
98.22
150.17
196.27
237.22
275.06
312.14
349.93
387.95
423.98
454.91
478.06
492.14
497.36
494.92
486.20
472.15
453.08
428.89
399.37
364.43
324.42
280.06
232.64
183.96
136.01
90.50
48.33
9.25
-28.31
-66.61
-107.98
-153.47
-201.88
-249.36
-290.13
-318.23
-329.29
-322.41
-300.68
-270.53
-239.81
-215.65
-202.35
-200.22
-205.99
-214.38
-220.85
-223.54
-224.14
-226.80
-236.16
-255.40
-284.87
-322.00
-361.61
-397.10
-422.10
-432.69
-429.68
-419.23
-411.43
-416.45
-440.17
-480.93
-529.67
-573.22
-599.52
-602.20
-581.47
-542.40
-491.35
-433.21
-370.21
-302.92
-231.64
-157.79
-84.36
-14.26
51.10
112.99
174.61
239.56
310.16
386.79
468.27
551.79
634.77
715.08
790.52
857.43
910.42
943.82
954.33
942.09
908.89
858.67
796.84
729.49
661.70
596.63
535.46
478.61
424.63
367.88
302.56
226.01
140.91
53.19
-30.81
-106.84
-172.22
-228.04
-281.77
-342.40
-416.60
-505.99
-607.99
-717.11
-825.68
-922.42
-970.55
-941.79
-834.93
-680.80
-520.94
-384.23
-279.56
-206.76
-148.18
-90.82
-32.16
25.32
79.60
133.78
191.51
256.27
321.13
377.45
416.42
431.85
424.60
401.12
370.40
339.13
308.65
274.85
233.65
182.60
122.41
59.02
0.40
-46.28
-77.91
-96.54
-107.74
-116.08
-124.73
-135.87
-149.63
-165.91
-183.14
-197.34
-202.98
-195.26
-171.52
-133.42
-87.33
-40.03
1.71
33.85
56.88
74.17
89.78
107.12
128.48
142.89
147.44
141.90
127.61
107.64
85.09
62.25
40.13
19.36
-0.55
-18.52
-31.33
-40.69
-47.08
-50.39
-50.25
-46.21
-36.89
-22.29
-2.66
19.25
39.10
53.80
62.26
66.32
62.67
53.91
44.06
37.85
37.90
44.00
54.22
65.38
74.38
79.22
80.58
79.59
77.54
74.63
69.98
62.88
53.12
41.23
28.06
15.22
3.44
-6.91
-15.61
-22.46
-27.24
-30.29
-32.75
-36.28
-41.91
-50.28
-61.15
-73.54
-85.93
-96.75
-104.91
-110.08
-112.77
-113.72
-113.81
-113.57
-112.83
-110.88
-106.82
-100.10
-90.78
-79.61
-67.66
-56.19
-46.16
-38.19
-32.32
-28.18
-25.03
-21.97
-18.11
-12.84
-6.00
2.01
10.36
17.96
23.75
27.06
27.74
26.10
22.65
17.81
11.69
4.02
-5.59
-17.39
-31.20
-46.26
-61.46
-75.64
-88.05
-98.57
-107.65
-115.99
-124.07
-131.88
-138.74
-143.52
-145.05
-142.47
-135.67
-125.33
-112.78
-99.55
-86.83
-75.09
-63.92
-52.08
-37.77
-19.24
4.78
34.49
68.71
105.00
140.14
170.96
195.18
212.03
222.19
227.19
228.55
227.08
222.82
215.60
205.74
194.55
184.14
176.47
172.47
171.47
171.48
170.19
166.08
159.02
150.13
141.11
133.38
127.42
122.69
117.78
111.05
101.02
86.82
68.34
46.43
22.63
-1.23
-23.50
-43.11
-59.36
-71.57
-79.21
-81.78
-79.15
-71.72
-60.41
-46.44
-30.82
-13.66
6.07
29.07
55.07
82.23
107.48
127.48
139.81
143.72
140.84
134.84
128.59
123.35
118.25
111.09
99.54
81.83
57.27
26.71
-6.94
-41.13
-73.57
-102.87
-128.94
-151.33
-168.87
-183.24
-198.01
-214.08
-230.16
-243.39
-251.74
-254.80
-253.12
-247.15
-236.47
-224.48
-206.88
-182.44
-153.08
-122.78
-95.42
-73.21
-56.48
-44.33
-35.09
-26.57
-18.75
-11.37
-5.37
-1.33
0.96
2.31
3.48
5.02
7.64
10.53
12.57
12.69
10.68
7.26
3.63
0.89
-0.38
0.06
1.26
2.04
1.36
-1.05
-4.83
-9.30
-13.91
-18.38
-22.54
-26.54
-30.37
-33.86
-36.58
-38.07
-38.10
-36.70
-34.12
-30.60
-26.37
-21.50
-16.03
-9.96
-3.35
3.61
10.74
17.85
24.75
31.24
37.03
41.89
45.58
48.08
49.53
50.23
50.54
50.73
50.91
51.04
50.97
50.52
49.66
48.51
47.28
46.27
45.70
45.59
45.79
46.05
46.17
46.03
45.58
44.79
43.54
41.65
38.93
35.32
31.06
26.70
22.98
20.71
20.36
21.95
24.91
28.30
31.18
32.91
33.33
32.70
31.47
30.04
28.66
27.36
26.08
24.80
23.47
22.04
20.42
18.48
16.12
13.34
10.29
7.19
4.33
1.87
-0.17
-1.96
-3.75
-5.73
-7.98
-10.39
-12.72
-14.75
-16.29
-17.29
-17.79
-17.93
-17.94
-18.13
-18.74
-19.97
-21.81
-23.97
-25.96
-27.23
-27.36
-26.26
-24.18
-21.64
-19.16
-17.06
-15.32
-13.76
-12.09
-10.15
-7.87
-5.26
-2.25
1.24
5.14
9.10
12.53
14.78
15.45
14.60
12.68
10.29
7.83
5.46
3.06
0.54
-2.01
-4.24
-5.71
-6.16
-5.71
-4.79
-4.00
-3.75
-4.09
-4.76
-5.39
-5.74
-5.78
-5.65
-5.58
-5.69
-6.00
-6.51
-7.28
-8.42
-9.97
-11.85
-13.80
-15.50
-16.73
-17.44
-17.72
-17.65
-17.33
-16.80
-16.11
-15.37
-14.73
-14.34
-14.19
-14.20
-14.15
-13.83
-13.03
-11.66
-9.76
-7.50
-5.17
-3.06
-1.44
-0.36
0.23
0.53
0.76
1.03
1.30
1.37
0.90
-0.49
-3.06
-6.80
-11.36
-16.03
-19.97
-22.50
-23.29
-22.48
-20.57
-18.17
-15.77
-13.71
-12.12
-11.06
-10.54
-10.63
-11.37
-12.73
-14.56
-16.62
-18.67
-20.51
-22.19
-23.94
-26.10
-28.97
-32.62
-36.88
-41.30
-45.39
-48.85
-51.60
-53.82
-55.69
-57.29
-58.43
-58.75
-57.71
-54.69
-48.95
-39.61
-25.82
-7.06
16.48
43.66
72.45
100.33
124.90
144.54
158.64
167.49
171.93
172.81
170.78
166.23
159.43
150.69
140.51
129.52
118.29
107.21
96.40
85.74
74.98
63.98
52.72
41.43
30.44
20.11
10.68
2.19
-5.51
-12.64
-19.35
-25.63
-31.32
-36.17
-39.97
-42.65
-44.29
-45.11
-45.34
-45.31
-45.29
-45.52
-46.07
-46.90
-47.79
-48.52
-48.91
-48.87
-48.46
-47.78
-46.90
-45.89
-44.77
-43.51
-42.00
-40.07
-37.46
-33.96
-29.49
-24.19
-18.40
-12.56
-7.13
-2.40
1.46
4.45
6.70
8.34
9.54
10.39
10.99
11.39
11.65
11.87
12.15
12.48
12.73
12.62
11.84
10.25
7.97
5.42
3.09
1.31
0.16
-0.59
-1.21
-1.89
-2.63
-3.26
-3.61
-3.64
-3.43
-3.10
-2.79
-2.54
-2.35
-2.23
-2.18
-2.21
-2.41
-2.82
-3.47
-4.35
-5.34
-6.27
-6.90
-7.09
-6.86
-6.42
-6.02
-5.88
-6.09
-6.62
-7.38
-8.34
-9.50
-10.77
-12.00
-12.99
-13.55
-13.63
-13.31
-12.78
-12.20
-11.63
-11.07
-10.42
-9.58
-8.48
-7.07
-5.35
-3.42
-1.44
0.39
1.91
3.07
3.93
4.63
5.26
5.85
6.33
6.62
6.69
6.61
6.48
6.37
6.27
6.06
5.58
4.75
3.61
2.37
1.27
0.51
0.12
0.00
-0.05
-0.22
-0.59
-1.19
-1.96
-2.87
-3.94
-5.22
-6.74
-8.51
-10.45
-12.39
-14.12
-15.43
-16.22
-16.47
-16.32
-15.98
-15.72
-15.76
-16.25
-17.16
-18.32
-19.45
-20.21
-20.26
-19.31
-17.16
-13.74
-9.19
-3.92
1.49
6.40
10.36
13.30
15.50
17.47
19.61
22.05
24.62
27.05
29.22
31.14
32.94
34.70
36.36
37.77
38.89
39.90
41.23
43.36
46.61
50.96
56.10
61.51
66.67
71.32
75.53
79.71
84.28
89.57
95.69
102.65
110.38
118.77
127.83
137.48
147.42
156.98
165.17
171.12
174.18
174.05
170.15
161.47
146.43
123.00
89.28
44.16
-11.81
-76.45
-146.34
-218.02
-287.36
-349.02
-396.80
-425.06
-430.82
-415.47
-385.11
-348.86
-317.03
-296.57
-288.49
-288.42
-289.15
-283.47
-265.68
-232.48
-182.94
-120.62
-51.02
19.96
86.45
142.98
185.05
210.16
217.86
209.97
187.54
153.26
112.22
69.80
30.43
-3.35
-30.36
-50.86
-50.35
-21.22
30.99
90.65
142.15
178.75
200.98
212.86
216.76
215.93
209.55
197.24
181.15
161.88
140.08
116.05
93.52
73.55
55.72
36.79
14.58
-10.48
-40.71
-77.65
-121.29
-170.10
-223.41
-281.36
-345.99
-418.68
-469.82
-479.26
-446.12
-384.92
-309.34
-226.21
-139.27
-54.66
19.95
78.56
115.23
130.10
129.56
122.81
116.30
112.06
108.83
105.46
102.86
100.21
97.70
97.30
102.02
113.28
130.11
148.65
163.26
168.30
157.97
130.55
90.46
46.87
9.62
-14.40
-23.05
-18.37
-4.66
12.09
26.24
33.67
31.88
19.99
-0.72
-26.24
-50.32
-66.56
-67.81
-51.77
-21.20
17.64
57.41
92.29
119.32
138.32
150.79
158.69
163.13
164.49
162.52
156.26
143.96
123.56
93.35
52.99
4.28
-49.06
-101.48
-146.71
-179.17
-195.70
-196.20
-183.56
-162.46
-137.61
-112.57
-88.86
-66.25
-43.77
-20.64
3.48
28.60
54.87
82.65
112.00
142.24
171.70
197.97
218.61
232.17
238.61
239.17
235.60
229.16
220.17
208.17
192.47
172.80
149.73
124.53
98.74
73.49
49.06
24.86
-0.26
-27.34
-56.79
-87.91
-118.95
-147.62
-171.86
-190.50
-203.54
-211.60
-215.18
-214.09
-207.48
-194.45
-174.82
-149.39
-119.75
-87.61
-54.33
-20.85
11.84
42.37
68.95
90.07
104.88
113.38
116.10
113.79
107.48
98.84
90.48
85.50
86.39
93.87
106.00
118.59
126.49
125.42
113.46
91.78
63.96
34.77
8.50
-12.20
-26.84
-36.56
-43.24
-48.40
-52.54
-55.35
-56.16
-54.61
-51.04
-46.73
-43.83
-45.30
-54.56
-74.63
-106.90
-149.86
-198.90
-247.50
-289.04
-319.12
-336.79
-343.96
-343.83
-338.82
-329.52
-314.78
-293.06
-263.47
-226.42
-183.33
-136.11
-86.90
-38.16
7.32
46.57
77.13
97.73
108.64
111.43
108.62
103.18
98.26
96.93
101.60
113.13
130.00
148.34
162.96
169.28
164.81
150.00
127.83
102.47
77.92
57.15
41.64
31.59
26.32
24.73
25.70
28.35
32.10
36.64
41.83
47.49
53.25
58.52
62.77
65.78
68.07
70.77
75.19
82.00
90.56
98.82
104.03
103.95
97.94
87.39
75.08
63.86
55.47
50.03
46.38
42.96
38.62
32.78
25.42
16.68
6.64
-4.84
-17.94
-32.73
-48.79
-64.97
-79.46
-90.17
-95.62
-95.76
-92.28
-88.19
-86.61
-89.40
-96.40
-105.78
-115.09
-122.62
-128.02
-132.05
-135.68
-139.21
-142.03
-143.08
-141.63
-137.79
-132.36
-126.31
-120.02
-113.14
-105.02
-95.23
-83.97
-71.89
-59.45
-46.43
-31.96
-15.08
4.45
25.65
46.46
64.42
77.58
85.20
87.88
87.16
84.90
82.71
81.71
82.37
84.68
88.14
91.92
95.08
96.87
96.93
95.30
92.17
87.70
81.91
74.68
66.00
56.12
45.58
35.12
25.53
17.42
11.04
6.25
2.75
0.43
-0.40
0.92
4.91
11.42
19.13
25.70
28.65
26.41
19.16
8.75
-2.13
-11.01
-16.40
-17.92
-15.91
-11.01
-4.19
2.98
8.14
8.60
2.41
-10.58
-28.31
-47.30
-64.11
-77.12
-87.08
-96.39
-107.61
-122.01
-138.99
-156.59
-172.47
-184.68
-191.93
-193.21
-187.56
-174.28
-153.43
-126.32
-95.62
-64.78
-37.18
-15.31
-0.32
8.18
11.94
13.68
16.16
21.27
29.40
39.52
49.83
58.51
64.15
65.77
62.68
54.32
40.27
20.74
-3.02
-28.78
-53.96
-76.36
-94.76
-108.83
-118.99
-126.45
-132.67
-138.65
-144.46
-149.18
-151.45
-150.23
-144.64
-134.75
-122.02
-108.84
-97.37
-88.69
-83.12
-81.24
-84.53
-94.26
-111.56
-137.62
-172.66
-214.39
-257.29
-293.58
-315.49
-317.19
-294.75
-247.39
-178.20
-92.95
2.58
104.16
209.42
315.99
410.36
476.60
507.33
507.09
486.52
456.03
422.73
390.26
359.07
328.34
298.35
270.31
245.23
223.36
204.97
190.12
178.58
168.92
159.56
149.96
140.08
129.84
119.18
109.37
101.65
99.15
99.91
102.21
104.86
106.56
106.25
103.95
102.63
104.73
111.98
123.42
137.87
154.06
169.87
182.69
189.96
192.35
189.83
183.99
177.35
175.00
181.27
195.17
209.93
216.06
208.68
183.04
139.99
83.87
22.80
-27.00
-50.78
-44.43
-34.75
-31.31
-37.30
-42.01
-42.08
-36.84
-27.84
-18.92
-13.76
-13.77
-14.37
-12.48
-6.52
1.73
10.24
16.94
19.35
15.64
5.77
-6.15
-17.74
-28.12
-38.94
-51.74
-67.63
-87.62
-112.08
-140.39
-169.61
-198.12
-225.47
-253.00
-282.27
-314.79
-351.53
-391.75
-432.04
-465.77
-486.06
-487.81
-469.74
-434.45
-387.55
-335.75
-284.67
-237.54
-194.80
-155.72
-119.44
-85.81
-55.15
-27.88
-4.02
16.89
35.61
52.70
68.19
81.35
90.97
95.89
95.60
90.50
81.73
70.52
57.59
42.80
25.54
5.42
-17.08
-40.29
-61.74
-79.03
-90.59
-96.17
-96.74
-93.92
-89.35
-84.21
-79.13
-74.38
-70.08
-66.33
-63.19
-60.58
-58.15
-55.46
-52.10
-47.99
-43.44
-39.08
-35.61
-33.52
-33.00
-33.85
-35.53
-37.36
-38.59
-38.67
-37.34
-34.81
-31.67
-28.65
-26.39
-25.11
-24.65
-24.54
-24.19
-23.02
-20.47
-15.85
-8.34
2.84
18.06
36.95
58.36
80.65
102.26
122.20
140.21
156.50
171.37
184.90
196.90
207.12
215.56
222.48
228.19
232.79
235.92
236.90
235.10
230.27
222.70
213.26
203.13
193.59
185.76
180.38
177.62
176.92
177.04
176.36
173.29
166.73
156.22
141.80
123.82
102.75
79.14
53.65
27.11
0.38
-25.68
-50.43
-73.28
-93.64
-110.88
-124.31
-133.37
-137.76
-137.53
-132.98
-124.69
-113.43
-100.24
-86.35
-72.96
-60.86
-50.16
-40.24
-30.04
-18.63
-5.66
8.52
22.91
36.18
47.04
54.47
57.96
57.55
53.91
48.18
41.58
34.91
28.19
20.57
10.79
-2.15
-18.37
-36.81
-55.63
-72.78
-86.81
-97.28
-104.76
-110.44
-115.49
-120.62
-125.86
-130.74
-134.67
-137.32
-138.73
-139.22
-139.18
-138.73
-137.71
-135.93
-133.29
-129.91
-125.90
-121.05
-114.79
-106.33
-95.12
-81.34
-66.07
-50.86
-37.27
-26.21
-17.72
-11.11
-5.48
-0.19
4.79
9.01
11.99
13.61
14.33
15.13
17.16
21.34
28.09
37.34
48.57
61.00
73.70
85.60
95.58
102.58
105.73
104.65
99.55
91.24
81.08
70.58
61.04
53.17
46.81
41.13
35.15
28.31
20.84
13.70
8.14
5.02
4.52
6.13
8.90
11.90
14.36
15.85
16.13
15.21
13.33
10.88
8.35
6.11
4.25
2.56
0.59
-2.06
-5.67
-10.22
-15.40
-20.71
-25.54
-29.35
-31.86
-33.07
-33.24
-32.74
-31.93
-30.96
-29.87
-28.60
-27.18
-25.67
-24.12
-22.50
-20.58
-18.09
-14.84
-10.89
-6.61
-2.56
0.67
2.77
3.89
4.57
5.53
7.33
10.04
13.20
16.08
17.99
18.68
18.37
17.61
16.91
16.51
16.29
15.91
15.11
13.90
12.58
11.61
11.36
11.84
12.72
13.35
13.18
11.98
9.99
7.88
6.39
5.98
6.57
7.70
8.70
9.11
8.81
7.98
6.93
5.93
5.14
4.63
4.45
4.65
5.22
5.99
6.68
6.90
6.36
4.90
2.68
-0.03
-2.85
-5.54
-7.94
-10.05
-11.95
-13.71
-15.35
-16.86
-18.16
-19.18
-19.84
-20.00
-19.52
-18.22
-16.01
-12.92
-9.21
-5.29
-1.61
1.46
3.79
5.49
6.85
8.20
9.78
11.65
13.64
15.42
16.60
16.95
16.43
15.26
13.85
12.48
11.30
10.27
9.26
8.28
7.47
7.11
7.32
8.06
8.99
9.73
10.07
10.04
9.85
9.75
9.82
9.95
9.95
9.73
9.37
9.06
8.95
9.00
8.95
8.43
7.13
5.03
2.37
-0.42
-2.93
-4.92
-6.47
-7.75
-9.02
-10.40
-11.87
-13.40
-14.98
-16.79
-19.05
-21.95
-25.37
-28.90
-31.94
-33.98
-34.83
-34.70
-34.04
-33.36
-32.98
-32.90
-32.90
-32.66
-31.91
-30.52
-28.49
-25.96
-23.16
-20.30
-17.54
-14.89
-12.06
-8.45
-3.25
4.31
14.68
27.69
42.42
57.33
70.60
80.63
86.44
87.89
85.58
80.65
74.38
67.98
62.36
58.10
55.28
53.60
52.35
50.67
47.85
43.55
37.89
31.29
24.29
17.14
9.87
2.36
-5.46
-13.41
-21.02
-27.67
-32.83
-36.26
-38.12
-39.00
-39.64
-40.73
-42.48
-44.50
-45.73
-44.67
-39.86
-30.47
-16.74
-0.16
16.90
31.81
42.56
48.30
49.61
48.15
45.92
44.54
44.63
45.74
46.73
46.27
43.48
38.25
31.06
22.75
14.07
5.42
-3.06
-11.29
-18.98
-25.57
-30.41
-33.19
-34.16
-34.12
-34.08
-34.83
-36.54
-38.64
-40.24
-40.47
-38.99
-36.11
-32.63
-29.43
-27.10
-25.71
-24.86
-24.04
-22.86
-21.27
-19.46
-17.61
-15.76
-13.69
-11.10
-7.79
-3.71
0.99
6.12
11.39
16.47
20.91
24.37
26.71
28.18
29.37
30.95
33.30
36.32
39.54
42.37
44.40
45.55
45.98
45.82
45.09
43.66
41.44
38.53
35.10
31.34
27.26
22.68
17.39
11.34
4.71
-2.12
-8.77
-14.90
-20.38
-25.14
-29.15
-32.31
-34.49
-35.55
-35.40
-34.03
-31.53
-28.06
-23.91
-19.46
-15.09
-11.08
-7.56
-4.43
-1.46
1.52
4.56
7.57
10.41
12.99
15.33
17.59
19.87
22.18
24.37
26.19
27.46
28.17
28.53
28.95
29.79
31.25
33.26
35.47
37.48
38.97
39.73
39.77
39.12
37.85
35.93
33.40
30.30
26.73
22.65
17.88
11.97
4.33
-5.49
-17.61
-31.61
-46.57
-61.27
-74.49
-85.28
-93.11
-97.84
-99.68
-98.99
-96.23
-91.86
-86.35
-80.15
-73.67
-67.20
-60.97
-55.02
-49.31
-43.73
-38.22
-32.79
-27.58
-22.84
-18.81
-15.54
-12.81
-10.14
-6.98
-2.94
2.02
7.51
12.96
17.85
21.90
25.17
27.89
30.32
32.59
34.70
36.55
38.08
39.28
40.25
41.09
41.80
42.30
42.35
41.73
40.30
38.14
35.52
32.81
30.33
28.26
26.62
25.32
24.26
23.43
22.87
22.62
22.63
22.73
22.70
22.31
21.40
19.95
18.03
15.82
13.47
11.08
8.56
5.75
2.49
-1.31
-5.62
-10.26
-15.07
-19.94
-24.83
-29.70
-34.43
-38.80
-42.50
-45.34
-47.27
-48.43
-49.06
-49.34
-49.27
-48.73
-47.48
-45.35
-42.38
-38.80
-35.01
-31.40
-28.18
-25.29
-22.46
-19.28
-15.47
-10.94
-5.85
-0.47
4.89
10.01
14.76
19.10
22.95
26.17
28.60
30.15
30.86
30.93
30.63
30.16
29.51
28.46
26.66
23.93
20.36
16.35
12.45
9.06
6.25
3.70
0.95
-2.42
-6.50
-11.09
-15.80
-20.29
-24.28
-27.69
-30.44
-32.45
-33.63
-33.99
-33.68
-33.03
-32.41
-31.99
-31.73
-31.31
-30.24
-28.14
-24.89
-20.63
-15.86
-11.13
-6.89
-3.27
-0.11
2.94
6.18
9.67
13.23
16.54
19.34
21.58
23.35
24.82
26.09
27.08
27.61
27.44
26.35
24.14
20.71
16.05
10.33
3.95
-2.52
-8.44
-13.24
-16.57
-18.32
-18.58
-17.55
-15.47
-12.62
-9.30
-5.82
-2.51
0.36
2.65
4.40
5.77
6.97
8.08
9.05
9.65
9.61
8.76
7.12
4.88
2.30
-0.35
-2.92
-5.30
-7.40
-9.12
-10.42
-11.40
-12.20
-12.99
-13.82
-14.57
-14.99
-14.87
-14.15
-13.00
-11.75
-10.76
-10.28
-10.33
-10.75
-11.27
-11.56
-11.40
-10.66
-9.42
-7.87
-6.33
-5.12
-4.48
-4.46
-4.93
-5.64
-6.30
-6.70
-6.76
-6.51
-6.08
-5.58
-5.11
-4.80
-4.76
-5.17
-6.10
-7.47
-8.98
-10.20
-10.72
-10.34
-9.12
-7.33
-5.22
-2.97
-0.51
2.32
5.72
9.79
14.48
19.58
24.83
29.94
34.65
38.81
42.29
44.98
46.83
47.78
47.87
47.21
45.97
44.36
42.57
40.72
38.82
36.87
34.76
32.37
29.59
26.32
22.60
18.57
14.51
10.69
7.31
4.41
1.92
-0.24
-2.12
-3.72
-5.00
-5.98
-6.76
-7.43
-8.00
-8.35
-8.27
-7.63
-6.44
-4.91
-3.29
-1.80
-0.52
0.53
1.36
1.86
1.85
1.10
-0.54
-3.09
-6.41
-10.28
-14.49
-18.96
-23.71
-28.90
-34.66
-40.96
-47.55
-53.96
-59.68
-64.35
-67.90
-70.52
-72.45
-73.78
-74.28
-73.40
-70.49
-65.03
-56.85
-46.24
-33.84
-20.52
-7.19
5.33
16.37
25.47
32.36
37.04
39.75
40.93
41.15
40.91
40.52
40.00
39.08
37.37
34.56
30.60
25.84
20.98
16.98
14.83
15.33
18.92
25.58
34.97
46.46
59.33
72.87
86.36
99.17
110.72
120.56
128.44
134.37
138.55
141.30
142.91
143.48
142.94
141.00
137.30
131.47
123.21
112.46
99.31
84.05
67.16
49.24
30.93
12.85
-4.53
-20.93
-36.21
-50.29
-62.94
-73.66
-81.73
-86.47
-87.58
-85.37
-80.79
-75.14
-69.56
-64.71
-60.65
-57.04
-53.46
-49.72
-45.83
-41.89
-37.87
-33.58
-28.75
-23.22
-17.10
-10.73
-4.57
1.03
5.88
9.94
13.29
15.96
17.88
18.98
19.17
18.48
17.12
15.44
13.88
12.80
12.33
12.39
12.81
13.39
14.00
14.59
15.01
15.03
14.37
12.81
10.31
7.00
3.06
-1.47
-6.60
-12.41
-18.73
-24.99
-30.42
-34.25
-36.09
-36.12
-34.98
-33.54
-32.53
-32.44
-33.49
-35.64
-38.76
-42.50
-46.36
-49.74
-52.20
-53.70
-54.75
-56.16
-58.72
-62.66
-67.53
-72.42
-76.42
-79.05
-80.36
-80.71
-80.37
-79.32
-77.39
-74.52
-71.06
-67.75
-65.39
-64.48
-64.95
-66.29
-67.81
-69.06
-69.92
-70.63
-71.53
-72.82
-74.53
-76.44
-78.17
-79.29
-79.55
-78.93
-77.70
-76.28
-75.09
-74.36
-74.10
-74.12
-74.20
-74.08
-73.57
-72.37
-70.09
-66.37
-60.95
-53.95
-45.79
-37.04
-28.13
-19.09
-9.56
1.12
13.50
27.79
43.64
60.27
76.82
92.62
107.37
121.04
133.58
144.73
153.95
160.60
164.20
164.64
162.08
156.81
149.04
138.94
126.83
113.37
99.58
86.47
74.69
64.17
54.22
43.88
32.49
19.98
6.89
-5.95
-17.72
-27.80
-35.69
-40.86
-42.82
-41.31
-36.51
-29.29
-21.00
-13.13
-6.92
-3.07
-1.72
-2.60
-5.23
-9.05
-13.52
-18.07
-22.17
-25.31
-27.15
-27.41
-25.94
-22.63
-17.45
-10.48
-2.01
7.42
17.00
25.86
33.11
38.10
40.49
40.28
37.79
33.66
28.72
23.88
19.89
17.22
15.90
15.64
16.01
16.61
17.23
17.70
17.80
17.12
15.18
11.54
6.10
-0.86
-8.75
-16.78
-24.16
-30.14
-33.96
-34.91
-32.36
-26.05
-16.28
-4.00
9.34
22.10
32.84
40.65
45.29
47.05
46.58
44.66
42.01
39.14
36.36
33.76
31.25
28.74
26.21
23.77
21.68
20.18
19.35
19.06
19.03
18.95
18.64
18.04
17.18
16.08
14.63
12.69
10.15
7.06
3.57
-0.10
-3.78
-7.52
-11.46
-15.81
-20.71
-26.09
-31.75
-37.40
-42.77
-47.69
-52.20
-56.40
-60.46
-64.43
-68.24
-71.74
-74.81
-77.51
-80.01
-82.57
-85.27
-88.00
-90.47
-92.34
-93.39
-93.48
-92.53
-90.48
-87.22
-82.73
-77.20
-71.02
-64.66
-58.49
-52.62
-46.92
-41.16
-35.17
-28.90
-22.38
-15.57
-8.24
-0.03
9.49
20.67
33.56
47.82
62.70
77.13
89.99
100.32
107.56
111.58
112.67
111.39
108.49
104.76
100.93
97.46
94.62
92.35
90.46
88.81
87.43
86.57
86.66
88.18
91.60
97.23
105.18
115.27
126.92
139.24
151.12
161.46
169.40
174.33
175.93
174.07
168.92
160.95
150.94
139.91
128.88
118.67
109.73
102.19
95.98
90.92
86.83
83.57
81.03
79.12
77.61
76.09
73.95
70.42
64.89
57.17
47.47
36.30
24.14
11.21
-2.59
-17.49
-33.46
-50.13
-66.71
-82.38
-96.58
-109.23
-120.64
-131.22
-141.15
-150.20
-157.73
-163.03
-165.49
-164.82
-161.14
-154.78
-146.22
-136.13
-125.37
-115.06
-106.27
-99.71
-95.27
-92.16
-89.25
-85.66
-81.16
-76.28
-71.94
-68.99
-67.79
-68.03
-68.88
-69.32
-68.49
-66.12
-62.64
-59.12
-56.95
-57.29
-60.60
-66.24
-72.70
-78.18
-81.25
-81.37
-79.01
-75.17
-70.89
-66.85
-63.17
-59.68
-56.17
-52.59
-49.12
-46.03
-43.46
-41.31
-39.26
-36.89
-33.88
-30.07
-25.54
-20.61
-15.82
-11.72
-8.64
-6.41
-4.27
-1.14
4.05
11.84
21.99
33.57
45.25
55.82
64.49
70.95
75.17
77.28
77.33
75.38
71.73
66.89
61.55
56.29
51.33
46.43
41.21
35.28
28.63
21.58
14.72
8.59
3.51
-0.45
-3.44
-5.62
-7.11
-7.96
-8.19
-7.92
-7.34
-6.73
-6.43
-6.64
-7.37
-8.39
-9.32
-9.75
-9.47
-8.48
-7.00
-5.31
-3.66
-2.30
-1.39
-0.94
-0.81
-0.71
-0.29
0.66
2.11
3.79
5.30
6.40
7.20
8.09
9.52
11.60
14.02
16.04
16.94
16.34
14.33
11.32
7.75
3.87
-0.25
-4.50
-8.66
-12.36
-15.24
-17.15
-18.18
-18.57
-18.46
-17.80
-16.36
-14.05
-11.00
-7.64
-4.52
-2.11
-0.59
0.12
0.26
-0.00
-0.63
-1.79
-3.72
-6.62
-10.49
-15.23
-20.70
-26.95
-34.28
-43.10
-53.58
-65.37
-77.57
-89.05
-98.95
-107.12
-114.13
-120.87
-127.86
-134.72
-140.07
-141.97
-138.68
-129.42
-114.62
-95.65
-74.29
-52.08
-30.02
-8.64
11.76
30.87
48.27
63.48
76.24
86.57
94.78
101.28
106.44
110.45
113.34
115.05
115.53
114.83
113.03
110.24
106.51
101.80
96.03
89.24
81.72
74.05
67.01
61.32
57.33
54.94
53.58
52.53
51.17
49.17
46.59
43.66
40.65
37.64
34.59
31.30
27.60
23.38
18.68
13.72
8.88
4.57
1.16
-1.17
-2.54
-3.29
-3.80
-4.40
-5.21
-6.16
-7.09
-7.80
-8.19
-8.20
-7.82
-7.06
-5.91
-4.43
-2.79
-1.34
-0.54
-0.83
-2.49
-5.36
-8.95
-12.58
-15.70
-17.98
-19.44
-20.38
-21.21
-22.26
-23.63
-25.32
-27.25
-29.36
-31.52
-33.45
-34.71
-34.83
-33.40
-30.09
-25.06
-19.11
-13.51
-9.64
-8.46
-10.24
-14.67
-20.96
-27.69
-33.74
-38.61
-42.34
-45.14
-47.08
-48.09
-48.48
-48.58
-47.67
-45.04
-40.22
-33.14
-23.90
-12.51
0.87
15.14
29.24
43.85
59.57
76.58
94.47
112.79
131.66
151.49
171.59
191.42
212.38
235.33
260.42
287.20
315.41
345.83
379.74
417.11
440.76
436.47
398.18
331.91
250.73
167.25
91.13
34.80
-1.67
-19.95
-22.48
-15.90
-10.91
-19.08
-49.32
-103.57
-175.66
-253.35
-319.93
-358.42
-358.33
-319.77
-253.03
-175.78
-107.25
-62.17
-46.89
-57.73
-84.27
-115.80
-146.31
-173.17
-196.62
-217.60
-236.23
-251.78
-264.01
-275.06
-289.61
-313.46
-345.83
-379.07
-401.05
-399.28
-364.72
-295.21
-196.13
-77.87
45.90
167.79
285.32
394.94
481.38
526.87
523.43
478.09
416.78
347.43
274.70
201.94
130.24
58.34
-13.07
-82.90
-149.37
-211.10
-271.49
-330.16
-384.23
-430.45
-466.52
-490.46
-501.43
-499.16
-467.72
-406.85
-327.16
-244.65
-170.13
-104.81
-43.96
15.78
74.71
131.75
179.42
213.95
237.11
254.25
271.03
291.63
308.63
317.98
317.46
304.90
282.74
256.45
231.63
211.41
195.69
181.79
167.87
152.14
131.64
105.29
74.00
40.12
6.50
-24.30
-50.38
-69.22
-79.29
-80.98
-75.29
-63.61
-47.77
-30.07
-12.92
1.63
13.25
22.39
29.65
35.79
41.50
46.96
51.86
55.57
57.50
57.71
56.53
54.57
52.56
51.12
50.65
51.16
52.34
53.59
54.38
54.20
52.69
49.64
44.91
38.39
29.93
19.41
6.87
-7.28
-22.21
-36.74
-49.65
-60.05
-67.63
-72.70
-75.87
-77.78
-78.62
-78.29
-76.51
-73.23
-68.87
-64.14
-59.75
-55.96
-52.43
-48.45
-43.34
-36.86
-29.28
-21.30
-13.68
-6.92
-1.15
3.77
8.14
12.14
15.83
19.12
21.85
23.87
25.18
25.91
26.29
26.60
27.02
27.55
28.07
28.47
28.65
28.65
28.47
28.07
27.32
26.13
24.52
22.67
20.89
19.39
18.27
17.42
16.62
15.70
14.56
13.20
11.71
10.25
8.95
8.04
7.67
7.92
8.68
9.75
10.83
11.71
12.26
12.45
12.39
12.21
12.02
11.95
12.03
12.24
12.51
12.74
12.81
12.64
12.11
11.11
9.63
7.74
5.70
3.94
2.84
2.59
3.08
3.92
4.60
4.76
4.25
3.15
1.63
-0.19
-2.31
-4.72
-7.36
-9.97
-12.17
-13.67
-14.42
-14.68
-14.97
-15.75
-17.16
-18.99
-20.79
-22.08
-22.62
-22.53
-22.11
-21.68
-21.46
-21.38
-21.25
-20.94
-20.48
-20.16
-20.37
-21.30
-22.76
-24.12
-24.56
-23.48
-20.84
-17.19
-13.47
-10.52
-8.66
-7.57
-6.58
-5.05
-2.82
-0.20
2.16
3.73
4.30
4.07
3.46
2.84
2.40
2.02
1.48
0.57
-0.69
-2.06
-3.15
-3.62
-3.41
-2.72
-2.03
-1.84
-2.44
-3.72
-5.27
-6.46
-6.86
-6.37
-5.27
-4.04
-3.08
-2.57
-2.43
-2.53
-2.71
-2.96
-3.32
-3.80
-4.32
-4.72
-4.85
-4.71
-4.43
-4.29
-4.61
-5.60
-7.23
-9.25
-11.23
-12.71
-13.44
-13.44
-13.03
-12.57
-12.36
-12.42
-12.64
-12.79
-12.79
-12.73
-12.76
-12.94
-13.04
-12.68
-11.42
-9.15
-6.10
-2.86
-0.11
1.71
2.58
2.87
3.03
3.49
4.36
5.53
6.77
7.86
8.65
9.11
9.20
8.94
8.34
7.50
6.55
5.69
5.16
5.10
5.58
6.50
7.53
8.30
8.37
7.53
5.87
3.78
1.82
0.48
0.01
0.33
1.09
1.81
2.09
1.72
0.69
-0.88
-2.72
-4.59
-6.25
-7.46
-8.09
-8.07
-7.46
-6.45
-5.35
-4.53
-4.30
-4.85
-6.08
-7.76
-9.52
-10.96
-11.85
-12.18
-12.10
-11.86
-11.68
-11.67
-11.73
-11.68
-11.30
-10.45
-9.12
-7.42
-5.51
-3.54
-1.63
0.10
1.52
2.45
2.79
2.51
1.78
0.98
0.50
0.64
1.51
2.97
4.72
6.41
7.74
8.57
8.84
8.65
8.15
7.55
7.00
6.60
6.40
6.41
6.62
7.02
7.55
8.10
8.45
8.40
7.83
6.89
5.89
5.18
4.92
5.00
5.02
4.58
3.45
1.76
-0.06
-1.50
-2.20
-2.06
-1.35
-0.52
-0.12
-0.51
-1.79
-3.78
-6.08
-8.23
-9.88
-10.90
-11.34
-11.32
-10.95
-10.21
-9.06
-7.47
-5.57
-3.56
-1.57
0.43
2.59
5.09
7.95
10.98
13.86
16.31
18.25
19.77
21.03
22.16
23.08
23.66
23.76
23.45
22.94
22.63
22.84
23.71
25.17
26.91
28.63
30.11
31.32
32.36
33.38
34.48
35.65
36.86
38.03
39.02
39.72
40.01
39.79
39.11
38.09
36.98
35.94
35.04
34.23
33.39
32.54
31.78
31.36
31.55
32.58
34.59
37.51
41.09
44.81
48.03
50.20
51.12
51.14
51.05
51.82
54.09
57.90
62.61
67.19
70.63
72.29
72.05
70.32
67.87
65.66
64.64
65.34
67.69
70.75
72.86
72.10
66.92
56.79
42.14
24.20
4.18
-17.20
-39.82
-63.81
-88.93
-114.19
-137.91
-158.27
-174.16
-185.83
-194.91
-203.97
-215.41
-230.56
-248.90
-268.08
-284.42
-294.12
-294.40
-284.16
-264.09
-236.09
-202.47
-165.48
-126.94
-88.50
-51.59
-17.48
12.77
38.31
58.21
71.26
75.98
71.17
56.55
33.62
5.64
-22.90
-47.31
-63.68
-69.55
-64.08
-48.21
-24.62
2.64
28.86
49.98
63.64
69.89
71.02
70.30
70.74
73.94
79.85
87.21
94.31
99.70
102.39
101.96
98.33
91.73
82.54
71.37
58.93
46.01
33.38
21.78
11.66
3.27
-3.53
-9.02
-13.51
-17.10
-19.63
-20.78
-20.30
-18.20
-14.81
-10.63
-6.24
-2.06
1.57
4.44
6.43
7.59
8.10
8.22
8.14
7.80
6.96
5.40
3.07
0.28
-2.41
-4.44
-5.45
-5.48
-4.91
-4.21
-3.74
-3.59
-3.51
-3.03
-1.77
0.44
3.39
6.58
9.47
11.72
13.36
14.54
15.43
15.92
15.71
14.50
12.20
9.07
5.59
2.18
-0.88
-3.53
-5.67
-7.08
-7.39
-6.29
-3.65
0.37
5.26
10.48
15.40
19.65
23.14
26.02
28.52
30.76
32.66
33.89
34.02
32.69
29.64
24.77
18.02
9.40
-0.92
-12.41
-24.20
-35.20
-44.43
-51.32
-56.02
-58.98
-60.54
-60.83
-59.88
-57.86
-55.04
-51.73
-48.21
-44.70
-41.17
-37.24
-32.49
-26.76
-20.41
-14.07
-8.42
-3.85
-0.96
0.24
0.45
0.66
1.52
3.07
4.92
6.57
7.69
6.52
2.11
-4.89
-12.59
-19.18
-23.81
-26.40
-27.34
-27.27
-30.12
-38.27
-50.67
-63.64
-73.76
-79.78
-82.31
-82.88
-82.95
-88.69
-103.32
-124.70
-146.70
-164.13
-175.47
-182.09
-186.77
-192.38
-208.48
-241.42
-290.29
-347.90
-405.84
-458.04
-500.83
-532.62
-509.87
-415.74
-271.18
-120.53
2.82
89.58
145.47
180.27
202.00
216.31
219.76
210.61
192.87
174.05
161.33
156.64
158.15
162.72
168.54
169.62
163.17
151.66
141.10
136.54
139.70
150.54
164.65
180.10
192.98
201.77
208.62
218.11
233.88
256.21
282.08
306.14
322.93
326.33
313.53
286.48
250.94
213.55
179.11
149.73
125.20
104.59
86.32
69.52
54.30
41.16
30.14
20.49
11.30
1.95
-7.26
-15.58
-22.15
-26.47
-28.58
-29.16
-29.32
-30.21
-32.65
-36.69
-41.73
-46.80
-50.91
-53.44
-54.28
-53.76
-52.31
-50.27
-47.62
-44.16
-39.63
-33.91
-27.14
-19.69
-12.12
-4.97
1.32
6.55
10.80
14.22
16.97
19.06
20.36
20.77
20.29
19.23
17.95
16.76
15.67
14.39
12.55
9.91
6.53
2.77
-0.90
-4.11
-6.72
-8.91
-10.95
-13.06
-15.26
-17.36
-19.07
-20.12
-20.44
-20.25
-19.95
-19.98
-20.58
-21.73
-23.10
-24.28
-24.96
-25.02
-24.48
-23.36
-21.68
-19.36
-16.41
-12.99
-9.49
-6.32
-3.86
-2.23
-1.30
-0.73
-0.12
0.82
2.21
3.93
5.71
7.16
7.95
8.01
7.51
6.81
6.33
6.31
6.69
7.18
7.36
6.98
5.99
4.62
3.22
2.09
1.34
0.98
0.91
1.03
1.35
1.83
2.38
2.81
2.83
2.29
1.28
0.17
-0.52
-0.31
1.02
3.35
6.31
9.48
12.53
15.23
17.46
19.06
19.95
20.13
19.75
19.05
18.27
17.51
16.69
15.56
13.89
11.54
8.49
4.89
0.96
-2.99
-6.66
-9.78
-12.22
-14.00
-15.26
-16.21
-17.00
-17.74
-18.46
-19.20
-19.95
-20.65
-21.14
-21.22
-20.72
-19.68
-18.31
-16.93
-15.80
-14.98
-14.37
-13.78
-13.05
-12.18
-11.24
-10.32
-9.43
-8.50
-7.36
-5.96
-4.34
-2.70
-1.28
-0.29
0.22
0.37
0.31
0.23
0.29
0.53
1.02
1.76
2.65
3.52
4.07
3.95
2.94
1.09
-1.34
-3.86
-6.00
-7.45
-8.13
-8.19
-7.94
-7.64
-7.48
-7.49
-7.61
-7.73
-7.82
-7.91
-8.03
-8.21
-8.36
-8.27
-7.85
-7.12
-6.39
-6.08
-6.57
-8.01
-10.21
-12.68
-14.93
-16.69
-17.96
-19.02
-20.24
-21.90
-24.12
-26.93
-30.23
-33.83
-37.34
-40.11
-41.27
-39.99
-35.73
-28.56
-19.28
-9.20
0.11
7.27
11.36
12.12
9.88
5.46
-0.04
-5.37
-9.40
-11.25
-10.53
-7.41
-2.53
3.16
8.63
13.06
15.95
17.24
17.20
16.27
14.88
13.25
11.31
8.79
5.43
1.22
-3.37
-7.47
-10.14
-10.67
-8.87
-5.14
-0.28
4.85
9.60
13.55
16.58
18.65
19.85
20.31
20.28
20.06
20.03
20.44
21.41
22.80
24.31
25.59
26.30
26.30
25.67
24.72
23.85
23.45
23.67
24.37
25.19
25.66
25.48
24.61
23.28
21.91
20.85
20.29
20.15
20.17
20.06
19.61
18.81
17.74
16.44
14.85
12.79
10.06
6.75
3.20
-0.11
-2.79
-4.76
-6.34
-8.00
-10.16
-12.94
-16.15
-19.44
-22.57
-25.46
-28.24
-31.06
-33.91
-36.51
-38.50
-39.52
-39.52
-38.82
-37.99
-37.64
-38.07
-39.15
-40.41
-41.29
-41.39
-40.66
-39.33
-37.67
-35.90
-34.07
-32.19
-30.33
-28.68
-27.44
-26.68
-26.32
-26.04
-25.38
-23.93
-21.35
-17.53
-12.61
-6.91
-0.86
5.16
10.86
16.10
20.84
25.03
28.67
31.68
34.03
35.63
36.32
35.97
34.48
31.92
28.55
24.80
21.08
17.70
14.74
12.20
10.10
8.53
7.57
7.14
7.02
6.89
6.53
5.90
5.23
4.90
5.20
6.20
7.67
9.26
10.59
11.45
11.84
11.94
11.92
11.87
11.78
11.55
11.21
10.86
10.71
10.90
11.39
11.98
12.33
12.21
11.57
10.57
9.45
8.44
7.63
6.97
6.36
5.68
4.92
4.09
3.24
2.40
1.56
0.66
-0.42
-1.76
-3.39
-5.25
-7.20
-9.09
-10.83
-12.43
-13.91
-15.32
-16.57
-17.48
-17.87
-17.60
-16.71
-15.38
-13.88
-12.41
-11.13
-10.05
-9.16
-8.41
-7.78
-7.30
-7.03
-7.08
-7.56
-8.47
-9.66
-10.80
-11.56
-11.70
-11.27
-10.54
-9.78
-9.09
-8.29
-7.08
-5.23
-2.87
-0.42
1.64
2.94
3.51
3.60
3.52
3.46
3.42
3.27
2.96
2.59
2.40
2.66
3.45
4.60
5.72
6.39
6.34
5.62
4.60
3.80
3.60
4.07
4.93
5.74
6.09
5.80
4.94
3.68
2.21
0.54
-1.42
-3.74
-6.37
-9.09
-11.62
-13.62
-14.95
-15.67
-16.08
-16.63
-17.72
-19.58
-22.13
-25.06
-27.95
-30.42
-32.27
-33.50
-34.25
-34.71
-35.03
-35.34
-35.65
-35.79
-35.50
-34.45
-32.33
-29.00
-24.51
-19.07
-12.91
-6.35
0.28
6.60
12.16
16.62
19.87
22.04
23.45
24.48
25.27
25.80
25.88
25.43
24.51
23.41
22.51
22.12
22.40
23.32
24.72
26.37
28.06
29.68
31.17
32.47
33.52
34.13
34.11
33.34
31.87
29.92
27.82
25.83
24.10
22.59
21.20
19.83
18.49
17.21
16.04
14.98
13.92
12.77
11.45
9.96
8.31
6.54
4.73
3.02
1.53
0.33
-0.60
-1.32
-1.91
-2.42
-2.78
-2.86
-2.62
-2.06
-1.34
-0.65
-0.21
-0.16
-0.53
-1.32
-2.49
-3.99
-5.59
-6.95
-7.56
-6.96
-4.93
-1.67
2.24
5.98
8.83
10.43
10.83
10.47
9.93
9.71
10.04
10.93
12.18
13.46
14.53
15.19
15.34
15.08
14.46
13.56
12.47
11.29
10.13
9.16
8.46
7.94
7.38
6.45
4.95
2.84
0.28
-2.43
-4.98
-7.09
-8.55
-9.29
-9.29
-8.72
-7.87
-7.07
-6.59
-6.56
-6.93
-7.50
-8.05
-8.39
-8.39
-7.98
-7.13
-5.97
-4.59
-3.23
-2.01
-0.99
-0.13
0.60
1.30
2.04
2.93
4.02
5.29
6.61
7.72
8.38
8.56
8.44
8.42
8.72
9.24
9.51
8.95
7.25
4.67
1.84
-0.55
-2.11
-3.01
-3.64
-4.42
-5.37
-6.24
-6.65
-6.46
-5.88
-5.32
-5.12
-5.32
-5.71
-5.99
-5.98
-5.68
-5.19
-4.68
-4.21
-3.77
-3.33
-2.87
-2.41
-2.02
-1.78
-1.76
-2.01
-2.47
-3.06
-3.66
-4.23
-4.81
-5.43
-6.14
-6.88
-7.60
-8.25
-8.88
-9.66
-10.74
-12.15
-13.76
-15.25
-16.32
-16.76
-16.54
-15.88
-15.03
-14.29
-13.83
-13.66
-13.65
-13.58
-13.27
-12.53
-11.37
-9.82
-8.01
-6.08
-4.18
-2.43
-0.92
0.30
1.29
2.09
2.87
3.76
4.83
6.17
7.68
9.23
10.52
11.24
11.11
10.09
8.38
6.39
4.70
3.68
3.46
3.84
4.47
4.98
5.17
5.02
4.63
4.17
3.76
3.51
3.44
3.53
3.72
3.95
4.14
4.15
3.85
3.08
1.71
-0.22
-2.53
-4.85
-6.74
-7.91
-8.29
-8.07
-7.63
-7.27
-7.14
-7.16
-7.11
-6.80
-6.13
-5.15
-3.91
-2.51
-1.01
0.57
2.11
3.45
4.42
4.87
4.78
4.26
3.56
2.96
2.66
2.78
3.27
4.00
4.78
5.43
5.87
6.04
5.97
5.79
5.59
5.51
5.64
6.03
6.59
7.18
7.64
7.82
7.66
7.11
6.22
5.03
3.63
2.12
0.64
-0.67
-1.71
-2.44
-2.88
-3.15
-3.43
-3.90
-4.70
-5.88
-7.41
-9.17
-10.98
-12.62
-13.88
-14.53
-14.48
-13.73
-12.44
-10.93
-9.53
-8.37
-7.39
-6.34
-4.95
-3.12
-0.96
1.28
3.33
5.03
6.37
7.41
8.17
8.74
9.10
9.32
9.51
9.78
10.15
10.60
10.98
11.16
11.02
10.48
9.53
8.24
6.77
5.29
3.99
3.01
2.34
1.90
1.50
0.96
0.22
-0.76
-1.88
-3.08
-4.30
-5.57
-6.88
-8.18
-9.32
-10.08
-10.38
-10.28
-10.08
-10.13
-10.67
-11.63
-12.70
-13.43
-13.44
-12.62
-11.12
-9.24
-7.25
-5.32
-3.51
-1.83
-0.31
1.02
2.09
2.93
3.65
4.44
5.50
6.97
8.85
10.92
12.84
14.26
14.92
14.84
14.16
13.25
12.43
11.98
12.05
12.62
13.52
14.51
15.33
15.69
15.48
14.70
13.58
12.40
11.42
10.80
10.56
10.63
10.87
11.12
11.27
11.11
10.52
9.45
7.95
6.21
4.49
2.97
1.71
0.68
-0.31
-1.35
-2.47
-3.59
-4.59
-5.40
-6.00
-6.49
-6.99
-7.59
-8.27
-8.96
-9.54
-9.98
-10.30
-10.65
-11.11
-11.68
-12.25
-12.54
-12.35
-11.56
-10.25
-8.64
-6.94
-5.36
-3.93
-2.59
-1.26
0.10
1.47
2.75
3.85
4.72
5.41
6.05
6.77
7.62
8.56
9.46
10.19
10.67
10.95
11.10
11.21
11.33
11.46
11.57
11.63
11.59
11.39
10.97
10.23
9.16
7.81
6.31
4.84
3.56
2.61
2.02
1.81
1.88
2.10
2.31
2.36
2.21
1.92
1.68
1.72
2.26
3.37
5.02
7.00
9.02
10.79
12.11
12.88
13.19
13.17
13.02
12.88
12.85
13.03
13.53
14.51
16.06
18.17
20.65
23.15
25.32
26.83
27.48
27.24
26.11
24.10
21.28
17.68
13.44
8.76
3.86
-1.03
-5.73
-10.12
-14.19
-17.94
-21.36
-24.43
-27.11
-29.36
-31.24
-32.82
-34.23
-35.56
-36.77
-37.68
-37.98
-37.31
-35.46
-32.47
-28.54
-24.02
-19.24
-14.37
-9.55
-4.89
-0.64
2.96
5.72
7.75
9.46
11.35
13.83
16.91
20.16
22.90
24.51
24.64
23.37
21.13
18.42
15.71
13.24
10.97
8.83
6.75
4.82
3.32
2.53
2.62
3.54
5.02
6.65
8.18
9.51
10.79
12.28
14.11
16.19
18.19
19.75
20.70
21.21
21.70
22.70
24.56
27.32
30.70
34.37
38.07
41.71
45.43
49.34
53.46
57.68
61.76
65.37
68.20
69.97
70.42
69.39
66.78
62.57
56.91
49.99
42.09
33.55
24.67
15.74
6.96
-1.58
-9.88
-18.01
-26.07
-34.10
-42.01
-49.61
-56.54
-62.34
-66.61
-69.17
-70.15
-70.02
-69.42
-68.90
-68.90
-69.60
-71.02
-73.15
-75.96
-79.44
-83.50
-87.99
-92.66
-97.20
-101.32
-104.68
-106.93
-107.77
-106.95
-104.44
-100.47
-95.49
-90.11
-84.88
-80.01
-75.41
-70.60
-65.02
-58.22
-50.14
-41.18
-32.02
-23.44
-15.92
-9.60
-4.29
0.28
4.33
7.85
10.76
12.96
14.46
15.42
15.99
16.34
16.59
16.82
17.15
17.71
18.57
19.73
21.16
22.76
24.41
25.92
27.07
27.64
27.45
26.53
25.05
23.33
21.57
19.88
18.14
16.17
13.78
10.88
7.46
3.58
-0.61
-4.84
-8.72
-11.81
-13.79
-14.52
-14.11
-12.81
-10.96
-8.87
-6.78
-4.85
-3.09
-1.44
0.21
1.97
3.85
5.67
7.19
8.23
8.82
9.20
9.74
10.77
12.33
14.18
15.89
17.13
17.88
18.48
19.59
21.79
25.29
29.77
34.37
38.11
40.21
40.44
39.06
36.69
33.89
31.04
28.23
25.38
22.37
19.14
15.63
11.78
7.57
3.01
-1.77
-6.49
-10.82
-14.47
-17.30
-19.31
-20.62
-21.50
-22.31
-23.39
-24.96
-27.05
-29.47
-31.91
-34.02
-35.55
-36.34
-36.27
-35.28
-33.30
-30.37
-26.67
-22.53
-18.31
-14.27
-10.41
-6.49
-2.19
2.73
8.24
14.02
19.54
24.32
28.08
30.94
33.32
35.71
38.46
41.68
45.18
48.69
52.01
55.05
57.82
60.26
62.25
63.51
63.80
62.95
61.01
58.15
54.64
50.64
46.25
41.49
36.45
31.33
26.49
22.32
18.98
16.41
14.27
12.09
9.47
6.11
1.82
-3.67
-10.70
-19.65
-30.71
-43.59
-57.45
-71.09
-83.27
-93.13
-100.49
-105.74
-109.60
-112.63
-115.03
-116.59
-116.85
-115.44
-112.29
-107.61
-101.74
-94.89
-87.10
-78.23
-68.25
-57.35
-46.02
-34.88
-24.48
-15.16
-6.98
0.20
6.53
12.21
17.37
22.12
26.59
30.79
34.70
38.13
40.87
42.78
43.87
44.36
44.62
45.03
45.80
46.90
48.13
49.11
49.55
49.24
48.20
46.65
44.86
43.09
41.47
40.05
38.78
37.62
36.50
35.35
34.01
32.29
29.98
27.02
23.49
19.65
15.87
12.56
9.93
7.99
6.54
5.23
3.77
2.00
0.01
-2.00
-3.79
-5.21
-6.21
-6.79
-6.93
-6.57
-5.63
-4.16
-2.32
-0.46
1.07
2.06
2.52
2.61
2.60
2.68
2.92
3.30
3.76
4.26
4.85
5.52
6.24
6.91
7.36
7.45
7.22
6.86
6.67
6.90
7.60
8.55
9.43
9.93
9.99
9.81
9.77
10.16
11.07
12.36
13.65
14.54
14.77
14.20
12.88
10.98
8.73
6.43
4.32
2.63
1.43
0.66
0.16
-0.29
-0.88
-1.74
-2.94
-4.48
-6.24
-7.95
-9.20
-9.61
-9.02
-7.55
-5.68
-3.99
-2.85
-2.29
-1.97
-1.47
-0.49
1.00
2.86
4.87
6.94
9.02
11.05
12.84
14.12
14.65
14.34
13.23
11.53
9.54
7.53
5.73
4.32
3.40
2.97
2.99
3.36
3.95
4.68
5.43
6.04
6.32
6.18
5.64
4.93
4.33
4.15
4.53
5.45
6.72
8.06
9.21
9.90
9.99
9.44
8.31
6.77
5.05
3.40
2.01
1.04
0.51
0.33
0.30
0.14
-0.40
-1.45
-3.03
-5.01
-7.14
-9.17
-10.85
-12.00
-12.56
-12.62
-12.45
-12.33
-12.42
-12.67
-12.87
-12.71
-12.00
-10.72
-9.03
-7.15
-5.31
-3.70
-2.48
-1.73
-1.50
-1.66
-1.97
-2.12
-1.84
-1.06
0.14
1.52
2.82
3.84
4.42
4.57
4.38
4.03
3.68
3.36
2.90
1.91
-0.13
-3.58
-8.49
-14.39
-20.51
-25.93
-29.95
-32.31
-33.20
-33.02
-32.21
-31.04
-29.66
-28.18
-26.83
-25.91
-25.68
-26.15
-26.95
-27.50
-27.25
-25.84
-23.32
-20.05
-16.53
-13.23
-10.50
-8.45
-7.06
-6.13
-5.44
-4.72
-3.81
-2.65
-1.24
0.41
2.36
4.73
7.62
10.97
14.51
17.83
20.55
22.51
23.84
24.83
25.79
26.83
27.89
28.78
29.33
29.56
29.57
29.47
29.28
28.85
27.89
26.18
23.73
20.78
17.85
15.49
14.04
13.48
13.41
13.20
12.33
10.53
7.87
4.66
1.26
-2.06
-5.13
-7.82
-10.07
-11.80
-13.03
-13.87
-14.54
-15.32
-16.45
-17.96
-19.60
-21.01
-21.71
-21.42
-20.18
-18.35
-16.56
-15.38
-15.16
-15.79
-16.84
-17.66
-17.67
-16.56
-14.35
-11.38
-8.14
-5.17
-2.92
-1.60
-1.17
-1.43
-2.09
-2.83
-3.47
-3.86
-4.00
-3.87
-3.57
-3.20
-2.88
-2.70
-2.59
-2.45
-2.17
-1.63
-0.91
-0.16
0.44
0.74
0.69
0.32
-0.25
-0.91
-1.54
-1.98
-2.07
-1.67
-0.78
0.54
2.02
3.37
4.28
4.55
4.12
3.11
1.77
0.35
-0.91
-1.84
-2.32
-2.32
-1.89
-1.15
-0.28
0.54
1.13
1.42
1.39
1.06
0.48
-0.25
-0.97
-1.47
-1.53
-1.00
0.04
1.39
2.74
3.83
4.63
5.24
5.92
6.87
8.16
9.76
11.55
13.42
15.32
17.22
18.99
20.43
21.28
21.33
20.48
18.83
16.64
14.27
12.17
10.66
9.94
9.97
10.50
11.17
11.67
11.87
11.82
11.65
11.45
11.16
10.61
9.65
8.24
6.50
4.58
2.64
0.72
-1.13
-2.83
-4.26
-5.28
-5.83
-6.00
-5.98
-5.97
-6.19
-6.73
-7.58
-8.62
-9.67
-10.53
-11.02
-10.99
-10.35
-9.12
-7.38
-5.30
-3.13
-1.15
0.39
1.31
1.64
1.61
1.59
2.02
3.19
5.18
7.79
10.63
13.18
14.92
15.52
14.83
12.99
10.31
7.26
4.31
1.77
-0.25
-1.81
-3.03
-3.98
-4.65
-5.02
-5.07
-4.91
-4.70
-4.62
-4.74
-5.07
-5.52
-6.01
-6.46
-6.84
-7.17
-7.57
-8.14
-8.98
-10.09
-11.31
-12.32
-12.82
-12.68
-12.02
-11.21
-10.67
-10.67
-11.25
-12.21
-13.30
-14.33
-15.24
-15.97
-16.49
-16.64
-16.28
-15.37
-14.04
-12.54
-11.15
-10.05
-9.21
-8.53
-7.78
-6.80
-5.56
-4.07
-2.40
-0.63
1.23
3.11
4.93
6.52
7.76
8.55
8.90
8.96
8.92
8.97
9.14
9.32
9.27
8.71
7.48
5.63
3.47
1.45
0.02
-0.58
-0.42
0.18
0.78
1.00
0.70
-0.05
-1.11
-2.29
-3.46
-4.57
-5.61
-6.56
-7.39
-8.00
-8.30
-8.24
-7.82
-7.11
-6.10
-4.69
-2.72
-0.05
3.23
6.84
10.26
12.99
14.79
15.75
16.28
16.79
17.49
18.26
18.74
18.55
17.59
16.05
14.32
12.83
11.76
11.09
10.58
10.02
9.26
8.36
7.45
6.74
6.38
6.43
6.83
7.45
8.13
8.79
9.35
9.76
9.97
9.90
9.45
8.64
7.62
6.72
6.27
6.51
7.36
8.47
9.34
9.56
8.95
7.66
6.00
4.29
2.74
1.39
0.18
-0.93
-1.90
-2.67
-3.23
-3.65
-4.08
-4.66
-5.45
-6.40
-7.37
-8.25
-9.02
-9.77
-10.62
-11.65
-12.84
-14.06
-15.06
-15.61
-15.52
-14.73
-13.24
-11.15
-8.62
-5.84
-3.04
-0.46
1.68
3.23
4.09
4.26
3.72
2.46
0.49
-2.10
-5.13
-8.28
-11.16
-13.47
-15.02
-15.86
-16.12
-15.88
-15.10
-13.64
-11.41
-8.53
-5.42
-2.60
-0.49
0.78
1.41
1.80
2.35
3.26
4.48
5.68
6.50
6.67
6.07
4.84
3.20
1.48
-0.07
-1.31
-2.20
-2.75
-2.93
-2.74
-2.21
-1.54
-1.01
-0.88
-1.25
-2.02
-2.92
-3.77
-4.54
-5.36
-6.42
-7.76
-9.16
-10.16
-10.26
-9.16
-6.85
-3.69
-0.19
3.16
6.04
8.33
10.17
11.73
13.15
14.48
15.65
16.55
17.13
17.40
17.45
17.43
17.45
17.52
17.60
17.51
17.20
16.68
16.16
15.86
15.94
16.33
16.66
16.41
15.11
12.64
9.29
5.67
2.42
-0.06
-1.71
-2.82
-3.76
-4.81
-6.07
-7.48
-8.95
-10.40
-11.82
-13.16
-14.36
-15.27
-15.79
-15.89
-15.63
-15.23
-14.94
-14.99
-15.53
-16.61
-18.07
-19.62
-20.94
-21.70
-21.69
-20.93
-19.58
-17.87
-16.02
-14.07
-12.00
-9.73
-7.28
-4.78
-2.47
-0.52
1.02
2.26
3.38
4.51
5.63
6.61
7.25
7.45
7.28
6.96
6.78
7.05
7.93
9.40
11.31
13.35
15.26
16.84
18.04
18.87
19.39
19.55
19.28
18.53
17.30
15.73
14.03
12.35
10.80
9.33
7.89
6.49
5.23
4.26
3.73
3.65
3.84
4.03
4.00
3.60
2.84
1.81
0.59
-0.82
-2.48
-4.43
-6.55
-8.55
-10.02
-10.63
-10.23
-8.99
-7.23
-5.28
-3.34
-1.43
0.57
2.83
5.54
8.79
12.65
17.06
21.80
26.51
30.72
34.04
36.33
37.68
38.41
38.83
39.25
39.88
40.83
42.20
43.99
46.12
48.42
50.72
52.89
54.90
56.75
58.32
59.37
59.46
58.18
55.28
50.77
44.95
38.23
31.01
23.59
16.11
8.61
1.05
-6.64
-14.52
-22.61
-30.83
-38.99
-46.89
-54.36
-61.32
-67.75
-73.60
-78.68
-82.66
-85.16
-85.99
-85.32
-83.69
-81.72
-80.00
-78.68
-77.50
-75.95
-73.56
-70.07
-65.54
-60.17
-54.22
-47.82
-40.99
-33.79
-26.35
-18.98
-12.07
-5.99
-0.96
3.06
6.26
9.03
11.68
14.47
17.43
20.48
23.44
26.08
28.27
29.89
30.90
31.27
30.96
29.94
28.29
26.10
23.51
20.65
17.53
14.13
10.47
6.65
2.88
-0.56
-3.48
-5.82
-7.67
-9.19
-10.56
-11.89
-13.26
-14.70
-16.25
-17.90
-19.59
-21.20
-22.59
-23.67
-24.41
-24.83
-24.99
-24.93
-24.70
-24.35
-23.96
-23.59
-23.24
-22.86
-22.34
-21.66
-20.83
-19.90
-18.89
-17.78
-16.47
-14.90
-13.10
-11.20
-9.39
-7.85
-6.69
-5.89
-5.33
-4.82
-4.14
-3.11
-1.68
-0.00
1.73
3.26
4.46
5.36
6.07
6.76
7.57
8.55
9.68
10.93
12.24
13.53
14.69
15.58
16.10
16.26
16.14
15.86
15.58
15.36
15.21
15.04
14.73
14.11
13.04
11.48
9.54
7.44
5.40
3.62
2.18
0.98
-0.07
-1.12
-2.21
-3.36
-4.59
-5.87
-7.18
-8.41
-9.43
-10.13
-10.43
-10.41
-10.16
-9.78
-9.32
-8.74
-8.02
-7.17
-6.24
-5.24
-4.13
-2.77
-0.96
1.37
4.13
7.06
9.80
12.11
13.87
15.23
16.37
17.45
18.51
19.51
20.43
21.29
22.19
23.19
24.26
25.21
25.81
25.87
25.39
24.57
23.63
22.80
22.13
21.47
20.65
19.52
18.01
16.13
13.97
11.58
9.05
6.52
4.13
1.97
0.14
-1.40
-2.74
-3.98
-5.20
-6.46
-7.73
-8.95
-10.04
-10.86
-11.28
-11.25
-10.74
-9.89
-8.88
-7.89
-7.10
-6.60
-6.41
-6.50
-6.81
-7.30
-7.94
-8.67
-9.36
-9.84
-9.88
-9.33
-8.27
-7.01
-5.97
-5.52
-5.74
-6.41
-7.15
-7.64
-7.82
-7.80
-7.79
-7.86
-7.91
-7.70
-7.08
-6.09
-4.90
-3.78
-2.92
-2.42
-2.21
-2.15
-2.04
-1.67
-0.95
0.08
1.19
2.09
2.59
2.60
2.26
1.78
1.40
1.25
1.37
1.69
2.11
2.51
2.76
2.75
2.41
1.74
0.85
-0.11
-1.02
-1.76
-2.28
-2.62
-2.83
-3.02
-3.30
-3.70
-4.15
-4.53
-4.71
-4.63
-4.43
-4.32
-4.47
-4.93
-5.53
-5.99
-6.11
-5.78
-5.11
-4.22
-3.23
-2.12
-0.80
0.77
2.55
4.41
6.14
7.59
8.74
9.65
10.45
11.21
11.96
12.64
13.18
13.49
13.50
13.20
12.61
11.79
10.81
9.75
8.74
7.84
7.14
6.69
6.52
6.59
6.86
7.25
7.62
7.80
7.60
6.88
5.64
3.95
2.07
0.28
-1.12
-1.99
-2.30
-2.15
-1.71
-1.16
-0.67
-0.42
-0.44
-0.65
-0.87
-0.94
-0.81
-0.64
-0.69
-1.24
-2.43
-4.26
-6.57
-9.21
-12.00
-14.84
-17.58
-20.04
-21.97
-23.19
-23.61
-23.32
-22.52
-21.45
-20.30
-19.10
-17.82
-16.33
-14.61
-12.71
-10.76
-8.89
-7.10
-5.29
-3.36
-1.25
0.94
2.98
4.67
5.85
6.57
7.00
7.33
7.70
8.11
8.50
8.71
8.70
8.48
8.13
7.82
7.74
8.05
8.85
10.06
11.46
12.76
13.71
14.19
14.26
14.07
13.78
13.49
13.09
12.48
11.55
10.38
9.12
7.97
7.05
6.32
5.66
4.91
3.99
2.93
1.77
0.59
-0.61
-1.79
-2.86
-3.57
-3.70
-3.16
-2.09
-0.87
0.06
0.43
0.22
-0.32
-0.81
-1.00
-0.83
-0.45
-0.10
0.05
-0.05
-0.34
-0.71
-1.07
-1.39
-1.71
-2.01
-2.21
-2.18
-1.82
-1.09
-0.14
0.83
1.62
2.19
2.60
3.05
3.73
4.74
6.10
7.71
9.38
10.91
12.06
12.63
12.46
11.56
10.00
7.98
5.76
3.63
1.81
0.43
-0.50
-1.05
-1.42
-1.83
-2.50
-3.64
-5.36
-7.68
-10.45
-13.50
-16.60
-19.58
-22.39
-25.01
-27.43
-29.60
-31.46
-33.00
-34.31
-35.56
-36.96
-38.53
-40.16
-41.55
-42.37
-42.30
-41.11
-38.71
-35.06
-30.23
-24.41
-17.94
-11.26
-4.85
0.91
5.83
9.85
13.09
15.60
17.47
18.77
19.66
20.35
21.06
21.88
22.68
23.31
23.63
23.64
23.49
23.35
23.26
23.10
22.65
21.76
20.36
18.57
16.58
14.56
12.63
10.88
9.39
8.15
7.11
6.14
5.04
3.68
2.04
0.19
-1.70
-3.48
-5.03
-6.29
-7.30
-8.19
-9.22
-10.71
-12.92
-15.97
-19.72
-23.83
-27.81
-31.29
-34.00
-35.91
-37.09
-37.68
-37.83
-37.62
-37.05
-36.00
-34.34
-32.00
-29.04
-25.64
-22.09
-18.63
-15.41
-12.44
-9.73
-7.33
-5.39
-4.05
-3.41
-3.34
-3.58
-3.75
-3.62
-3.10
-2.31
-1.48
-0.82
-0.37
-0.06
0.34
1.05
2.18
3.72
5.58
7.60
9.69
11.78
13.77
15.55
16.95
17.77
18.00
17.77
17.33
16.97
16.85
16.98
17.21
17.37
17.31
16.96
16.33
15.47
14.40
13.04
11.26
8.91
5.97
2.63
-0.74
-3.64
-5.70
-6.83
-7.23
-7.30
-7.41
-7.74
-8.31
-8.96
-9.53
-9.85
-9.73
-8.97
-7.40
-4.97
-1.90
1.44
4.64
7.42
9.66
11.41
12.75
13.77
14.55
15.21
15.95
16.92
18.16
19.54
20.86
21.90
22.60
23.04
23.34
23.51
23.48
23.14
22.42
21.41
20.22
18.92
17.49
15.79
13.73
11.41
9.19
7.58
7.07
7.87
9.84
12.55
15.44
18.12
20.37
22.28
24.02
25.76
27.54
29.25
30.71
31.75
32.25
32.21
31.64
30.55
28.92
26.72
23.97
20.84
17.64
14.77
12.60
11.26
10.60
10.26
9.77
8.79
7.27
5.38
3.49
1.94
1.02
0.79
1.16
1.95
2.83
3.49
3.61
3.02
1.70
-0.27
-2.66
-5.17
-7.47
-9.22
-10.14
-10.20
-9.60
-8.81
-8.36
-8.63
-9.67
-11.18
-12.73
-13.90
-14.48
-14.47
-14.00
-13.17
-12.08
-10.81
-9.46
-8.13
-6.92
-5.86
-4.92
-4.05
-3.20
-2.42
-1.75
-1.25
-0.97
-0.92
-1.10
-1.46
-1.91
-2.22
-2.17
-1.64
-0.73
0.31
1.17
1.67
1.82
1.83
1.97
2.41
3.18
4.15
5.14
5.99
6.61
7.02
7.30
7.53
7.76
7.97
8.13
8.20
8.27
8.49
9.00
9.79
10.62
11.11
10.99
10.19
8.89
7.40
5.95
4.56
3.08
1.31
-0.82
-3.21
-5.61
-7.79
-9.56
-10.83
-11.56
-11.80
-11.63
-11.27
-10.92
-10.73
-10.73
-10.82
-10.92
-11.03
-11.29
-11.85
-12.77
-13.92
-15.06
-15.90
-16.26
-16.18
-15.72
-14.94
-13.83
-12.30
-10.30
-7.86
-5.13
-2.37
0.14
2.11
3.33
3.75
3.48
2.78
2.02
1.47
1.32
1.55
2.02
2.58
3.12
3.59
3.94
4.12
3.99
3.41
2.37
0.93
-0.75
-2.47
-4.14
-5.82
-7.70
-9.97
-12.68
-15.71
-18.71
-21.23
-22.90
-23.54
-23.23
-22.26
-20.98
-19.71
-18.59
-17.65
-16.88
-16.30
-16.01
-16.12
-16.73
-17.83
-19.33
-21.14
-23.24
-25.66
-28.38
-31.15
-33.43
-34.52
-33.82
-31.12
-26.73
-21.36
-15.84
-10.82
-6.50
-2.78
0.57
3.76
6.76
9.43
11.56
13.12
14.21
15.02
15.69
16.30
16.81
17.11
17.19
17.13
17.16
17.54
18.51
20.21
22.58
25.43
28.40
31.06
33.02
34.07
34.19
33.60
32.63
31.55
30.54
29.60
28.69
27.80
27.02
26.48
26.19
26.06
25.85
25.27
24.13
22.39
20.21
17.77
15.33
13.07
11.04
9.20
7.44
5.62
3.63
1.43
-0.98
-3.56
-6.23
-8.90
-11.38
-13.46
-14.88
-15.46
-15.16
-14.15
-12.76
-11.34
-10.14
-9.29
-8.73
-8.32
-7.90
-7.36
-6.72
-6.04
-5.47
-5.13
-5.06
-5.14
-5.19
-5.01
-4.49
-3.60
-2.41
-1.02
0.50
2.11
3.71
5.12
6.11
6.43
6.01
4.98
3.62
2.27
1.20
0.51
0.12
-0.18
-0.61
-1.33
-2.33
-3.43
-4.31
-4.70
-4.44
-3.61
-2.49
-1.47
-0.92
-1.06
-1.94
-3.49
-5.60
-8.12
-10.87
-13.66
-16.27
-18.45
-20.06
-21.13
-21.71
-21.91
-21.78
-21.24
-20.13
-18.39
-16.06
-13.37
-10.62
-8.07
-5.84
-3.84
-1.90
0.16
2.37
4.60
6.67
8.34
9.50
10.16
10.48
10.59
10.61
10.59
10.51
10.37
10.23
10.25
10.60
11.41
12.67
14.19
15.74
17.03
17.90
18.36
18.57
18.76
19.05
19.43
19.74
19.87
19.75
19.49
19.25
19.25
19.55
20.15
20.96
21.84
22.64
23.26
23.60
23.68
23.58
23.39
23.21
23.05
22.82
22.33
21.40
19.85
17.58
14.57
10.83
6.41
1.37
-4.19
-10.11
-16.17
-21.99
-27.20
-31.47
-34.66
-36.88
-38.42
-39.60
-40.61
-41.49
-42.10
-42.21
-41.62
-40.19
-37.88
-34.81
-31.20
-27.44
-23.95
-21.08
-18.94
-17.40
-16.07
-14.56
-12.63
-10.33
-7.94
-5.83
-4.27
-3.41
-3.18
-3.41
-3.90
-4.53
-5.26
-6.16
-7.22
-8.33
-9.28
-9.81
-9.70
-8.92
-7.67
-6.29
-5.10
-4.34
-4.01
-3.99
-4.08
-4.08
-3.93
-3.69
-3.56
-3.74
-4.34
-5.27
-6.21
-6.69
-6.30
-4.86
-2.47
0.57
3.93
7.33
10.55
13.30
15.27
16.12
15.76
14.48
12.90
11.71
11.38
11.87
12.76
13.47
13.62
13.21
12.61
12.26
12.45
13.18
14.21
15.28
16.17
16.87
17.45
17.96
18.42
18.72
18.74
18.37
17.58
16.38
14.80
12.89
10.63
8.04
5.14
2.07
-1.03
-3.96
-6.54
-8.65
-10.22
-11.29
-11.93
-12.33
-12.65
-13.03
-13.51
-14.01
-14.35
-14.46
-14.35
-14.12
-13.90
-13.77
-13.69
-13.54
-13.21
-12.67
-11.97
-11.31
-10.92
-11.00
-11.68
-12.94
-14.60
-16.39
-18.00
-19.26
-20.21
-21.05
-22.10
-23.60
-25.63
-28.07
-30.63
-33.01
-34.87
-35.85
-35.62
-33.87
-30.41
-25.35
-19.14
-12.47
-6.05
-0.42
4.24
8.08
11.39
14.36
16.98
19.00
20.20
20.57
20.36
20.05
20.07
20.54
21.29
21.88
21.92
21.29
20.14
18.83
17.66
16.79
16.22
15.81
15.43
14.96
14.32
13.40
12.16
10.65
9.04
7.54
6.33
5.46
4.81
4.22
3.60
2.95
2.39
1.98
1.67
1.27
0.56
-0.64
-2.33
-4.34
-6.43
-8.37
-10.07
-11.59
-13.03
-14.48
-15.97
-17.52
-19.14
-20.96
-23.13
-25.76
-28.72
-31.65
-34.00
-35.25
-35.13
-33.67
-31.22
-28.13
-24.68
-20.96
-16.94
-12.59
-7.97
-3.18
1.67
6.43
10.92
14.90
18.06
20.15
20.99
20.62
19.29
17.44
15.55
14.07
13.23
13.09
13.50
14.13
14.64
14.80
14.57
14.09
13.57
13.18
12.95
12.80
12.61
12.28
11.78
11.20
10.58
9.92
9.14
8.10
6.70
5.00
3.17
1.47
0.12
-0.76
-1.25
-1.53
-1.85
-2.38
-3.18
-4.17
-5.26
-6.41
-7.62
-8.94
-10.37
-11.90
-13.39
-14.81
-16.17
-17.68
-19.55
-21.95
-24.85
-28.04
-31.09
-33.52
-34.90
-34.91
-33.50
-30.82
-27.21
-23.13
-19.00
-15.03
-11.29
-7.70
-4.14
-0.58
2.93
6.23
9.22
11.81
14.06
16.00
17.63
18.91
19.78
20.17
20.15
19.84
19.45
19.16
19.04
19.02
18.98
18.76
18.27
17.55
16.70
15.90
15.24
14.71
14.25
13.72
13.02
12.09
10.94
9.63
8.19
6.68
5.15
3.69
2.48
1.64
1.21
1.04
0.84
0.22
-1.11
-3.17
-5.72
-8.34
-10.67
-12.61
-14.38
-16.39
-18.98
-22.23
-25.86
-29.41
-32.37
-34.38
-35.31
-35.13
-33.89
-31.67
-28.61
-24.96
-21.01
-17.05
-13.25
-9.57
-5.91
-2.15
1.70
5.49
8.95
11.88
14.13
15.74
16.84
17.61
18.20
18.74
19.30
19.87
20.36
20.64
20.58
20.19
19.63
19.27
19.48
20.42
21.94
23.56
24.70
24.92
24.07
22.35
20.14
17.82
15.62
13.63
11.85
10.26
8.84
7.56
6.38
5.25
4.08
2.75
1.20
-0.66
-2.81
-5.09
-7.30
-9.22
-10.76
-12.08
-13.42
-15.07
-17.26
-19.96
-23.03
-26.23
-29.30
-32.03
-34.21
-35.69
-36.34
-36.12
-35.11
-33.47
-31.43
-29.12
-26.57
-23.61
-20.02
-15.64
-10.47
-4.78
0.96
6.19
10.51
13.76
16.08
17.72
18.97
20.02
20.93
21.74
22.47
23.12
23.69
24.16
24.48
24.63
24.60
24.37
23.91
23.24
22.47
21.77
21.29
21.04
20.88
20.54
19.79
18.56
17.02
15.44
14.06
12.98
12.14
11.35
10.41
9.17
7.56
5.59
3.39
1.12
-1.12
-3.30
-5.55
-8.06
-11.01
-14.38
-18.03
-21.79
-25.53
-29.25
-33.04
-36.94
-40.84
-44.47
-47.47
-49.51
-50.38
-50.08
-48.68
-46.17
-42.58
-38.03
-32.82
-27.30
-21.77
-16.51
-11.66
-7.24
-3.04
1.15
5.42
9.62
13.52
16.97
19.91
22.40
24.49
26.62
29.16
32.13
35.27
38.27
40.94
43.21
45.12
46.73
49.21
53.30
58.66
63.93
67.63
69.16
68.93
68.01
67.41
69.89
76.88
87.39
98.44
107.09
112.07
113.88
113.89
113.45
116.98
127.16
143.27
161.37
177.15
188.36
195.10
199.10
202.77
213.60
237.71
276.72
326.68
380.73
432.07
475.26
507.28
497.01
429.14
312.41
176.97
53.64
-41.98
-109.11
-154.19
-184.06
-203.75
-211.86
-207.54
-193.22
-175.73
-161.25
-152.51
-149.39
-149.83
-151.98
-151.37
-145.79
-136.80
-129.31
-128.81
-134.70
-145.65
-159.57
-174.78
-188.29
-198.67
-206.98
-216.44
-230.30
-249.94
-274.67
-301.24
-324.84
-339.35
-340.51
-327.64
-303.91
-274.48
-244.16
-216.38
-192.09
-170.64
-150.42
-130.37
-110.46
-91.36
-73.56
-56.87
-40.78
-24.72
-8.60
7.05
21.18
32.76
41.14
46.40
49.22
50.55
51.33
52.18
53.29
54.45
55.43
56.18
57.00
58.38
60.69
64.06
68.18
72.54
76.54
79.78
82.08
83.47
84.03
83.86
82.97
81.42
79.27
76.61
73.54
70.13
66.45
62.54
58.53
54.52
50.61
46.89
43.42
40.18
37.14
34.29
31.57
28.99
26.55
24.19
21.84
19.38
16.74
13.92
11.00
8.01
4.91
1.56
-2.19
-6.36
-10.76
-15.04
-18.83
-21.85
-24.02
-25.40
-26.11
-26.31
-26.13
-25.64
-24.99
-24.26
-23.63
-23.33
-23.59
-24.56
-26.17
-28.06
-29.65
-30.38
-29.99
-28.71
-27.19
-26.22
-26.40
-27.88
-30.27
-32.86
-34.78
-35.37
-34.32
-31.68
-27.89
-23.50
-19.17
-15.38
-12.44
-10.54
-9.69
-9.77
-10.51
-11.58
-12.63
-13.59
-14.68
-16.44
-19.41
-23.81
-29.47
-35.81
-42.17
-48.23
-54.11
-60.38
-67.74
-76.80
-87.68
-100.12
-113.50
-127.12
-140.45
-153.31
-165.91
-178.83
-192.89
-208.80
-226.88
-246.50
-265.91
-282.22
-292.11
-292.75
-282.80
-262.93
-235.50
-203.63
-170.05
-136.23
-102.20
-67.01
-29.60
10.32
51.72
92.23
128.76
158.41
179.48
191.93
197.37
198.22
196.72
194.22
191.07
187.12
182.35
177.21
172.45
168.59
165.43
162.14
157.67
151.42
143.62
135.20
127.41
121.14
116.57
113.10
109.76
105.68
100.48
94.36
87.90
81.74
76.28
71.56
67.38
63.42
59.48
55.50
51.61
48.01
44.81
41.98
39.39
36.88
34.30
31.67
29.03
26.41
23.78
21.01
17.98
14.66
11.12
7.51
3.96
0.48
-3.07
-6.92
-11.34
-16.45
-22.19
-28.33
-34.49
-40.27
-45.32
-49.30
-51.77
-52.27
-50.39
-46.01
-39.49
-31.64
-23.53
-16.05
-9.61
-4.08
1.00
6.07
11.26
16.37
21.02
24.92
28.00
30.44
32.53
34.49
36.35
37.94
39.02
39.36
38.94
37.92
36.58
35.23
33.99
32.87
31.77
30.65
29.59
28.77
28.39
28.54
29.10
29.76
30.19
30.10
29.35
27.99
26.19
24.08
21.70
18.98
15.80
12.18
8.29
4.45
1.00
-1.89
-4.25
-6.30
-8.30
-10.43
-12.77
-15.29
-17.95
-20.70
-23.47
-26.24
-29.00
-31.83
-34.88
-38.24
-41.88
-45.52
-48.63
-50.62
-50.97
-49.38
-45.89
-40.79
-34.51
-27.50
-20.19
-12.86
-5.69
1.19
7.70
13.75
19.24
24.06
28.16
31.52
34.16
36.11
37.39
38.04
38.12
37.73
36.96
35.87
34.50
32.86
30.99
28.99
27.04
25.34
24.01
23.04
22.25
21.44
20.37
18.86
16.85
14.40
11.73
9.08
6.76
4.96
3.68
2.79
2.04
1.19
0.05
-1.46
-3.37
-5.58
-7.91
-10.13
-12.01
-13.42
-14.44
-15.33
-16.42
-18.01
-20.22
-23.00
-26.09
-29.11
-31.55
-32.85
-32.54
-30.34
-26.38
-21.14
-15.37
-9.76
-4.78
-0.52
3.21
6.64
9.96
13.15
16.09
18.65
20.73
22.35
23.52
24.24
24.46
24.07
23.01
21.35
19.36
17.41
15.88
14.91
14.39
13.99
13.28
12.03
10.26
8.25
6.33
4.74
3.43
2.22
0.84
-0.85
-2.84
-4.98
-7.04
-8.82
-10.14
-10.95
-11.23
-11.05
-10.60
-10.15
-10.04
-10.55
-11.84
-13.78
-16.09
-18.36
-20.33
-21.90
-23.19
-24.45
-25.86
-27.52
-29.43
-31.50
-33.58
-35.43
-36.72
-37.04
-35.99
-33.34
-29.18
-23.87
-17.97
-12.05
-6.52
-1.54
2.91
6.97
10.78
14.38
17.70
20.58
22.82
24.26
24.89
24.85
24.40
23.79
23.21
22.71
22.23
21.66
20.96
20.14
19.32
18.59
18.04
17.70
17.51
17.40
17.27
17.06
16.69
16.17
15.47
14.55
13.33
11.77
9.93
7.99
6.22
4.86
3.97
3.38
2.76
1.75
0.07
-2.32
-5.29
-8.60
-12.02
-15.38
-18.56
-21.49
-24.19
-26.69
-29.08
-31.51
-34.14
-37.10
-40.43
-43.93
-47.22
-49.67
-50.69
-49.83
-47.02
-42.56
-37.01
-30.96
-24.88
-18.98
-13.32
-7.87
-2.61
2.45
7.27
11.78
15.86
19.34
22.03
23.81
24.72
24.87
24.47
23.74
22.87
22.09
21.64
21.73
22.35
23.32
24.24
24.68
24.34
23.19
21.45
19.42
17.38
15.46
13.61
11.69
9.56
7.19
4.68
2.25
0.15
-1.39
-2.34
-2.81
-3.06
-3.44
-4.19
-5.44
-7.19
-9.33
-11.68
-14.12
-16.52
-18.74
-20.69
-22.31
-23.64
-24.83
-26.14
-27.69
-29.40
-30.83
-31.36
-30.43
-27.80
-23.68
-18.63
-13.30
-8.19
-3.48
0.84
4.88
8.66
12.10
15.07
17.47
19.27
20.48
21.11
21.23
20.91
20.28
19.45
18.50
17.50
16.52
15.67
15.05
14.68
14.48
14.26
13.77
12.91
11.73
10.48
9.41
8.67
8.23
7.96
7.64
7.09
6.17
4.83
3.10
1.21
-0.56
-1.93
-2.82
-3.42
-4.10
-5.21
-6.89
-9.00
-11.23
-13.29
-15.15
-16.97
-19.02
-21.46
-24.20
-27.05
-29.72
-31.98
-33.68
-34.68
-34.80
-33.82
-31.59
-28.12
-23.67
-18.66
-13.64
-9.01
-4.94
-1.34
2.03
5.28
8.40
11.13
13.20
14.51
15.18
15.52
15.84
16.24
16.61
16.78
16.62
16.28
16.01
16.09
16.60
17.42
18.24
18.75
18.72
18.11
17.04
15.73
14.42
13.30
12.39
11.54
10.58
9.35
7.84
6.22
4.67
3.23
1.85
0.35
-1.35
-3.11
-4.71
-5.92
-6.66
-7.12
-7.65
-8.56
-10.04
-12.04
-14.28
-16.45
-18.28
-19.70
-20.86
-22.08
-23.75
-26.11
-29.14
-32.40
-35.21
-36.79
-36.59
-34.50
-30.80
-26.08
-21.02
-16.06
-11.44
-7.12
-2.99
1.01
4.85
8.39
11.50
14.14
16.38
18.30
19.83
20.73
20.63
19.35
17.03
14.24
11.83
10.53
10.67
11.99
13.84
15.46
16.31
16.23
15.42
14.23
13.01
11.99
11.30
10.94
10.90
11.11
11.48
11.88
12.16
12.09
11.45
10.08
8.02
5.53
3.00
0.77
-1.05
-2.66
-4.42
-6.59
-9.17
-11.80
-14.00
-15.43
-16.15
-16.63
-17.61
-19.66
-22.83
-26.62
-30.00
-31.94
-31.75
-29.32
-25.13
-20.01
-14.76
-9.89
-5.59
-1.81
1.53
4.42
6.78
8.57
9.89
11.00
12.19
13.63
15.23
16.63
17.43
17.35
16.47
15.18
14.02
13.40
13.35
13.52
13.40
12.68
11.37
9.88
8.69
8.09
8.00
7.99
7.60
6.61
5.08
3.27
1.41
-0.45
-2.39
-4.49
-6.71
-8.80
-10.51
-11.67
-12.35
-12.80
-13.39
-14.43
-15.99
-17.90
-19.84
-21.46
-22.58
-23.24
-23.67
-24.23
-25.18
-26.58
-28.34
-30.14
-31.67
-32.54
-32.44
-31.12
-28.51
-24.74
-20.12
-15.06
-9.92
-4.91
-0.14
4.34
8.43
12.03
15.05
17.56
19.65
21.45
22.94
24.02
24.52
24.39
23.74
22.80
21.85
21.10
20.62
20.39
20.29
20.23
20.07
19.76
19.26
18.60
17.83
17.00
16.10
15.08
13.91
12.65
11.45
10.50
9.87
9.50
9.15
8.53
7.42
5.73
3.60
1.27
-1.00
-2.95
-4.51
-5.69
-6.64
-7.48
-8.31
-9.17
-10.14
-11.30
-12.74
-14.52
-16.53
-18.57
-20.38
-21.87
-23.15
-24.50
-26.18
-28.21
-30.34
-32.05
-32.83
-32.31
-30.45
-27.46
-23.73
-19.71
-15.74
-12.02
-8.59
-5.44
-2.50
0.21
2.67
4.81
6.66
8.30
9.82
11.31
12.73
14.00
15.03
15.86
16.67
17.71
19.11
20.82
22.57
24.01
24.82
24.85
24.18
23.01
21.57
20.07
18.56
17.02
15.42
13.71
11.94
10.19
8.54
6.95
5.37
3.67
1.80
-0.19
-2.23
-4.24
-6.24
-8.32
-10.57
-12.95
-15.30
-17.38
-19.08
-20.42
-21.66
-23.09
-24.94
-27.23
-29.77
-32.16
-33.94
-34.69
-34.15
-32.32
-29.39
-25.72
-21.69
-17.61
-13.64
-9.80
-6.01
-2.20
1.62
5.41
9.02
12.34
15.29
17.86
20.08
22.01
23.64
24.87
25.59
25.75
25.46
24.93
24.38
23.91
23.47
22.88
22.02
20.84
19.38
17.70
15.86
13.95
12.13
10.62
9.64
9.20
9.14
9.07
8.63
7.62
6.11
4.28
2.33
0.35
-1.69
-3.79
-5.88
-7.78
-9.30
-10.34
-10.99
-11.49
-12.15
-13.25
-14.90
-17.07
-19.58
-22.12
-24.40
-26.15
-27.17
-27.24
-26.25
-24.14
-21.03
-17.19
-13.02
-8.87
-4.90
-1.12
2.57
6.19
9.60
12.54
14.78
16.24
17.05
17.47
17.70
17.88
18.01
18.05
18.00
17.82
17.51
17.10
16.61
16.15
15.76
15.46
15.18
14.84
14.38
13.87
13.38
12.95
12.48
11.76
10.59
8.88
6.69
4.21
1.61
-0.93
-3.29
-5.32
-6.85
-7.78
-8.14
-8.14
-8.07
-8.21
-8.68
-9.40
-10.13
-10.69
-10.98
-11.12
-11.34
-11.90
-13.03
-14.79
-17.11
-19.75
-22.41
-24.71
-26.30
-26.89
-26.33
-24.64
-21.98
-18.69
-15.10
-11.46
-7.83
-4.11
-0.13
4.19
8.74
13.31
17.61
21.47
24.81
27.65
29.98
31.68
32.57
32.52
31.48
29.60
27.10
24.20
21.04
17.69
14.21
10.69
7.20
3.83
0.59
-2.55
-5.64
-8.68
-11.70
-14.66
-17.49
-20.16
-22.65
-25.01
-27.29
-29.53
-31.63
-33.43
-34.72
-35.28
-34.98
-33.68
-31.16
-27.14
-21.27
-13.39
-3.62
7.61
19.66
31.79
43.28
53.43
61.58
67.23
70.23
70.99
70.39
69.39
68.59
67.88
66.57
63.83
59.20
52.92
45.72
38.47
31.73
25.54
19.66
13.72
7.49
0.92
-5.94
-13.00
-20.18
-27.37
-34.36
-40.82
-46.41
-50.76
-53.65
-54.93
-54.64
-52.90
-49.90
-45.93
-41.23
-36.04
-30.53
-24.85
-19.14
-13.60
-8.41
-3.77
0.18
3.42
5.97
7.96
9.54
10.86
12.05
13.19
14.27
15.22
15.92
16.19
15.88
14.93
13.43
11.57
9.59
7.67
5.83
3.85
1.36
-1.97
-6.19
-10.97
-15.57
-19.07
-20.64
-19.86
-16.85
-12.12
-6.42
-0.45
5.33
10.80
16.01
21.10
26.10
30.80
34.93
38.21
40.51
41.89
42.48
42.41
41.70
40.37
38.56
36.57
34.74
33.37
32.51
32.03
31.69
31.31
30.84
30.25
29.49
28.48
27.16
25.58
23.96
22.48
21.20
19.91
18.25
15.87
12.50
8.08
2.67
-3.58
-10.45
-17.58
-24.52
-30.80
-36.13
-40.52
-44.35
-48.08
-51.99
-55.90
-59.32
-61.57
-62.23
-61.27
-59.10
-56.38
-53.78
-51.87
-50.99
-51.23
-52.34
-53.71
-54.49
-53.72
-50.64
-45.00
-37.01
-27.23
-16.42
-5.43
4.79
13.42
19.91
24.12
26.26
26.87
26.58
25.77
24.56
22.82
20.44
17.47
14.09
10.35
6.35
2.31
-1.34
-4.17
-5.84
-6.34
-5.90
-4.90
-4.28
-4.56
-5.48
-6.23
-6.10
-4.93
-3.09
-1.19
0.30
0.12
-2.08
-5.22
-7.33
-6.95
-3.96
0.50
4.71
7.16
5.26
-1.80
-12.20
-22.43
-29.37
-31.88
-30.92
-28.94
-28.96
-36.11
-53.44
-79.89
-110.84
-140.40
-163.75
-178.35
-184.11
-167.51
-124.46
-63.72
-1.72
49.12
85.80
111.58
131.26
148.42
164.53
176.19
178.78
169.10
146.18
111.78
70.33
28.31
-7.60
-32.72
-48.06
-57.47
-64.29
-70.08
-74.23
-75.32
-72.51
-66.49
-58.77
-52.18
-50.38
-50.94
-50.69
-47.09
-39.62
-30.00
-21.46
-16.55
-17.16
-23.58
-34.08
-46.48
-58.79
-70.05
-80.27
-90.14
-98.79
-104.70
-106.05
-101.06
-89.26
-71.53
-50.12
-25.54
-2.55
15.76
28.13
34.45
35.13
30.22
19.55
3.34
-19.22
-49.21
-85.02
-124.28
-164.16
-201.15
-230.56
-247.00
-245.90
-225.61
-188.47
-137.04
-74.26
-2.96
72.57
149.10
225.11
300.34
374.72
433.96
466.28
466.63
439.79
396.73
348.13
300.28
255.23
212.72
172.32
136.62
108.72
90.28
80.27
75.45
71.99
66.74
58.20
46.51
34.61
25.87
22.72
25.84
34.15
44.80
53.26
54.06
42.37
17.26
-17.77
-55.77
-88.89
-111.39
-121.65
-122.07
-117.23
-111.33
-105.97
-100.51
-93.72
-85.34
-76.64
-69.75
-66.22
-66.07
-67.54
-67.65
-63.29
-52.93
-37.20
-18.80
-1.43
11.69
19.02
21.06
19.71
17.06
14.39
11.77
8.69
4.32
-1.31
-7.42
-12.87
-16.82
-18.97
-19.69
-19.66
-19.48
-19.42
-19.27
-18.71
-17.51
-15.83
-14.18
-13.13
-12.97
-13.43
-13.82
-13.30
-11.41
-8.31
-4.65
-1.30
1.19
2.68
3.35
3.47
3.25
2.73
1.98
1.11
0.17
-0.69
-1.38
-1.88
-2.20
-2.37
-2.42
-2.38
-2.25
-2.19
-2.17
-2.07
-1.75
-1.19
-0.49
0.13
0.47
0.44
-0.19
-1.30
-2.61
-3.78
-4.53
-4.77
-4.60
-4.48
-3.26
-0.93
2.24
5.80
9.20
11.97
13.80
14.67
14.86
14.85
14.90
15.24
15.88
16.72
17.57
18.37
19.21
20.28
21.79
23.63
25.64
27.66
29.54
31.26
32.89
34.45
35.87
37.02
37.49
36.96
35.21
32.12
27.71
22.12
15.64
8.69
1.74
-4.81
-10.70
-15.85
-20.34
-24.27
-27.64
-30.30
-32.03
-32.61
-32.05
-30.58
-28.61
-26.57
-24.82
-23.54
-22.74
-22.35
-22.22
-22.23
-22.16
-21.76
-20.84
-19.33
-17.35
-15.21
-13.29
-11.93
-11.29
-11.28
-11.67
-12.14
-12.39
-12.21
-11.56
-10.51
-9.27
-8.05
-7.01
-6.23
-5.69
-5.26
-4.85
-4.36
-3.79
-3.16
-2.49
-1.79
-1.04
-0.28
0.36
0.71
0.61
-0.03
-1.09
-2.39
-3.69
-4.83
-5.71
-6.36
-6.74
-6.83
-6.61
-6.14
-5.62
-5.34
-5.50
-6.13
-7.06
-8.05
-8.89
-9.52
-10.00
-10.38
-10.57
-10.35
-9.48
-7.84
-5.52
-2.88
-0.31
1.93
3.82
5.54
7.38
9.50
11.86
14.15
15.98
17.08
17.47
17.48
17.55
17.98
18.79
19.70
20.35
20.49
20.03
19.07
17.73
16.01
13.90
11.36
8.51
5.57
2.83
0.44
-1.58
-3.33
-4.91
-6.34
-7.59
-8.63
-9.53
-10.41
-11.38
-12.49
-13.67
-14.77
-15.68
-16.29
-16.61
-16.69
-16.70
-16.82
-17.24
-18.06
-19.29
-20.78
-22.26
-23.43
-24.04
-23.92
-23.06
-21.56
-19.61
-17.38
-14.98
-12.46
-9.85
-7.12
-4.37
-1.68
0.77
2.92
4.70
6.13
7.21
7.98
8.52
8.87
9.15
9.44
9.82
10.30
10.81
11.25
11.48
11.41
10.95
10.14
9.05
7.90
6.88
6.23
6.02
6.24
6.67
7.05
7.11
6.72
5.84
4.60
3.19
1.84
0.63
-0.45
-1.50
-2.62
-3.88
-5.27
-6.74
-8.21
-9.64
-10.93
-11.97
-12.65
-13.01
-13.28
-13.82
-14.98
-16.83
-19.23
-21.68
-23.51
-24.18
-23.54
-21.82
-19.37
-16.48
-13.37
-10.36
-7.70
-5.52
-3.86
-2.63
-1.69
-0.90
-0.05
1.04
2.21
3.39
4.74
6.36
8.10
9.52
10.31
10.49
10.40
9.54
7.74
5.61
4.08
3.58
3.98
4.94
6.14
7.38
6.63
2.93
-2.53
-7.38
-10.13
-10.70
-9.84
-8.55
-7.69
-10.74
-19.16
-30.71
-41.25
-48.01
-50.63
-50.39
-49.29
-49.55
-57.35
-76.57
-106.00
-140.71
-175.58
-206.47
-230.13
-244.61
-224.26
-162.50
-78.65
-1.52
53.57
87.01
105.70
116.39
123.13
127.69
126.68
118.69
106.80
96.26
90.21
88.55
89.48
91.01
92.05
89.43
82.21
72.81
64.95
60.53
59.07
59.03
59.01
58.44
55.56
50.02
43.67
39.25
38.33
40.44
43.52
44.47
40.36
28.61
9.34
-14.14
-36.81
-54.40
-65.02
-69.21
-69.22
-67.39
-65.40
-63.47
-60.75
-56.28
-49.86
-42.70
-35.17
-27.79
-20.67
-13.66
-6.52
0.77
7.88
14.24
19.28
22.67
24.30
24.54
24.09
23.64
23.61
23.95
24.31
24.26
23.66
22.66
21.67
21.12
21.23
21.80
22.39
22.40
21.33
19.11
15.93
12.42
9.39
7.50
7.04
7.77
9.08
10.31
10.99
10.97
10.43
9.60
8.76
8.09
7.79
7.97
8.67
9.77
10.97
11.88
12.18
11.83
10.83
9.44
7.95
6.58
5.39
4.33
3.41
2.58
1.80
1.00
0.11
-0.92
-2.04
-3.09
-3.83
-4.06
-3.71
-2.87
-1.79
-0.82
-0.24
-0.19
-0.65
-1.48
-2.53
-3.70
-4.92
-6.16
-7.31
-8.26
-8.87
-9.09
-8.97
-8.70
-8.45
-8.30
-8.24
-8.16
-7.96
-7.54
-6.87
-5.93
-4.75
-3.43
-2.06
-0.78
0.40
1.50
2.56
3.57
4.43
5.02
5.29
5.33
5.28
5.27
5.28
5.22
5.01
4.70
4.51
4.68
5.43
6.74
8.42
10.14
11.55
12.38
12.54
12.14
11.47
10.94
10.87
11.40
12.42
13.66
14.84
15.88
16.89
18.11
19.68
21.43
22.99
23.87
23.75
22.58
20.61
18.25
15.91
13.86
12.20
10.94
10.06
9.52
9.22
8.88
8.09
6.35
3.34
-0.94
-6.14
-11.75
-17.41
-23.09
-29.07
-35.67
-42.82
-49.80
-55.35
-58.05
-56.88
-51.48
-42.32
-30.40
-16.96
-3.34
9.22
19.56
26.73
30.09
29.44
25.03
17.58
8.21
-1.78
-11.05
-18.54
-23.62
-26.25
-26.84
-25.98
-24.22
-21.86
-18.95
-15.42
-11.22
-6.40
-1.16
4.23
9.40
13.92
17.40
19.56
20.37
20.04
18.98
17.60
16.20
14.82
13.35
11.66
9.66
7.42
5.11
2.95
1.06
-0.54
-1.90
-3.09
-4.03
-4.61
-4.69
-4.24
-3.40
-2.44
-1.60
-1.00
-0.59
-0.24
0.17
0.61
1.03
1.37
1.66
1.98
2.36
2.73
2.98
2.95
2.60
1.93
1.06
0.09
-0.87
-1.72
-2.37
-2.78
-3.03
-3.27
-3.73
-4.54
-5.61
-6.71
-7.53
-7.85
-7.62
-7.01
-6.24
-5.50
-4.94
-4.62
-4.52
-4.62
-4.88
-5.21
-5.47
-5.50
-5.23
-4.71
-4.14
-3.80
-3.91
-4.46
-5.23
-5.92
-6.33
-6.53
-6.86
-7.75
-9.41
-11.72
-14.23
-16.31
-17.48
-17.52
-16.60
-14.99
-13.07
-11.07
-9.10
-7.14
-5.14
-3.16
-1.35
0.04
0.79
0.87
0.53
0.23
0.47
1.47
3.06
4.71
5.81
6.04
5.49
4.64
3.97
3.80
4.07
4.53
4.89
5.02
4.98
4.92
5.01
5.33
5.84
6.40
6.85
7.04
6.87
6.33
5.56
4.77
4.10
3.60
3.25
2.99
2.82
2.80
2.94
3.18
3.30
3.10
2.43
1.34
0.02
-1.24
-2.24
-2.89
-3.24
-3.50
-3.87
-4.48
-5.32
-6.26
-7.09
-7.66
-7.95
-8.10
-8.31
-8.74
-9.41
-10.24
-11.09
-11.93
-12.82
-13.85
-15.06
-16.36
-17.44
-18.03
-17.90
-17.01
-15.54
-13.81
-12.17
-10.80
-9.66
-8.49
-6.99
-4.98
-2.48
0.31
3.14
5.86
8.42
10.86
13.10
14.96
16.18
16.57
16.18
15.32
14.42
13.84
13.67
13.78
13.87
13.64
12.95
11.87
10.62
9.45
8.60
8.12
7.97
8.01
8.07
8.04
7.87
7.52
7.01
6.32
5.42
4.31
3.08
1.89
0.92
0.35
0.21
0.37
0.55
0.44
-0.23
-1.54
-3.37
-5.41
-7.32
-8.79
-9.71
-10.07
-10.02
-9.69
-9.19
-8.62
-8.07
-7.63
-7.36
-7.26
-7.24
-7.16
-6.90
-6.47
-5.99
-5.64
-5.58
-5.81
-6.23
-6.61
-6.72
-6.35
-5.39
-3.91
-2.10
-0.24
1.41
2.67
3.48
3.91
4.05
3.98
3.76
3.47
3.27
3.31
3.74
4.59
5.77
7.09
8.32
9.34
10.08
10.62
11.06
11.54
12.13
12.75
13.18
13.11
12.30
10.78
8.85
7.02
5.69
5.02
4.80
4.60
4.03
2.90
1.35
-0.33
-1.88
-3.17
-4.20
-5.12
-5.98
-6.84
-7.65
-8.33
-8.81
-9.10
-9.27
-9.43
-9.75
-10.33
-11.28
-12.59
-14.19
-15.96
-17.65
-18.93
-19.43
-18.91
-17.34
-14.98
-12.25
-9.54
-7.08
-4.90
-2.91
-1.07
0.64
2.17
3.51
4.64
5.60
6.35
6.86
7.13
7.27
7.43
7.80
8.37
9.02
9.51
9.68
9.47
8.93
8.15
7.15
5.97
4.63
3.27
2.15
1.57
1.75
2.73
4.40
6.44
8.52
10.28
11.51
12.15
12.26
12.03
11.62
11.10
10.47
9.71
8.87
8.02
7.29
6.77
6.49
6.34
6.18
5.84
5.24
4.36
3.33
2.38
1.71
1.42
1.44
1.49
1.29
0.72
-0.11
-0.85
-1.19
-0.94
-0.14
0.91
1.90
2.66
3.25
3.86
4.69
5.93
7.66
9.88
12.34
14.70
16.60
17.86
18.53
18.76
18.83
18.97
19.33
19.77
20.12
20.40
20.84
21.66
22.96
24.60
26.34
27.90
28.43
27.45
25.14
22.43
20.52
20.24
21.69
24.47
27.98
30.26
29.79
26.35
21.22
16.48
14.03
15.05
19.94
28.25
36.18
39.59
35.69
24.37
7.58
-12.15
-32.93
-53.82
-74.96
-100.20
-133.01
-174.57
-222.91
-274.51
-326.50
-377.49
-426.86
-454.00
-443.25
-390.88
-309.23
-218.28
-134.60
-66.87
-16.86
18.16
43.01
59.33
68.13
70.51
69.03
67.39
69.02
75.29
87.80
106.77
127.96
146.26
157.31
159.48
153.77
142.56
128.41
113.42
99.30
82.89
62.64
38.31
11.69
-13.82
-34.22
-45.95
-46.81
-34.26
-8.56
27.88
70.13
111.97
147.25
171.41
182.93
177.08
156.54
127.83
98.84
74.49
55.70
40.75
27.85
16.71
8.43
5.23
6.97
11.61
15.63
15.99
11.22
1.65
-10.87
-23.44
-31.26
-29.77
-14.99
13.82
52.88
94.27
128.37
147.45
148.65
137.28
118.25
97.17
77.68
60.72
45.81
32.65
22.13
15.86
15.17
19.33
26.30
33.26
37.76
39.25
39.04
39.38
42.26
48.58
57.38
67.13
76.37
84.45
92.05
100.90
113.00
129.69
150.79
174.05
195.70
211.26
215.84
206.12
181.49
144.47
99.93
53.63
10.32
-27.14
-58.06
-83.28
-104.05
-121.32
-135.75
-147.93
-158.78
-169.56
-181.53
-195.51
-211.57
-228.80
-245.59
-260.12
-270.74
-276.35
-276.40
-270.93
-260.37
-245.39
-226.78
-205.41
-182.25
-158.28
-134.44
-111.37
-89.34
-68.22
-47.57
-26.85
-5.66
16.11
38.20
59.92
80.25
97.93
111.69
120.43
123.45
120.54
112.10
99.06
82.85
65.22
47.95
32.48
19.57
9.12
0.43
-7.47
-15.31
-23.34
-31.36
-38.90
-45.58
-51.22
-55.94
-60.09
-64.10
-68.46
-73.56
-79.60
-86.57
-94.20
-101.96
-109.19
-115.27
-119.59
-121.68
-121.18
-117.81
-111.45
-102.21
-90.49
-76.93
-62.33
-47.52
-33.21
-19.93
-8.07
2.08
10.21
16.07
19.60
20.98
20.69
19.37
17.57
15.58
13.43
11.03
8.49
6.18
4.74
4.89
7.18
11.91
18.99
27.94
37.87
47.64
56.00
61.94
64.99
65.32
63.64
60.92
58.10
55.84
54.49
54.11
54.57
55.66
57.12
58.80
60.60
62.52
64.48
66.37
68.04
69.45
70.73
72.19
74.18
76.89
80.26
84.04
87.97
91.90
95.92
100.26
105.16
110.71
116.75
122.81
128.08
131.41
131.55
127.37
118.13
103.69
84.51
61.54
36.02
9.40
-16.80
-41.13
-62.41
-79.93
-93.56
-103.65
-110.73
-115.19
-117.24
-116.88
-114.08
-108.90
-101.52
-92.16
-80.96
-68.06
-53.61
-37.97
-21.75
-5.75
9.15
22.11
32.43
39.62
43.39
43.77
41.15
36.31
30.32
24.44
19.74
16.98
16.37
17.64
20.18
23.24
26.07
28.03
28.59
27.37
24.18
19.02
12.09
3.69
-5.78
-16.01
-26.70
-37.60
-48.46
-59.01
-68.96
-77.97
-85.68
-91.60
-95.28
-96.27
-94.29
-89.31
-81.69
-72.11
-61.64
-51.61
-43.45
-38.45
-37.40
-40.43
-46.78
-55.06
-63.62
-70.93
-75.84
-77.59
-75.70
-69.88
-60.17
-47.13
-32.01
-16.64
-2.98
7.32
13.34
14.99
12.89
8.14
2.08
-3.94
-8.79
-11.78
-12.86
-12.56
-11.63
-10.72
-10.03
-9.26
-7.91
-5.60
-2.32
1.52
5.25
8.26
10.27
11.34
11.86
12.30
12.97
14.06
15.47
17.10
18.94
21.08
23.66
26.71
30.04
33.25
35.81
37.20
37.12
35.55
32.87
29.77
27.12
25.54
25.27
25.96
26.86
27.19
26.56
25.13
23.38
21.91
21.08
20.93
21.40
22.41
24.00
26.18
28.80
31.45
33.61
34.77
34.72
33.54
31.59
29.33
27.28
25.86
25.34
25.87
27.40
29.67
32.39
35.21
37.87
40.18
41.89
42.79
42.64
41.31
38.81
35.37
31.30
26.97
22.72
18.83
15.55
13.04
11.27
10.06
9.03
7.74
5.83
3.15
-0.26
-4.20
-8.47
-12.86
-17.25
-21.54
-25.70
-29.64
-33.24
-36.33
-38.79
-40.61
-42.02
-43.30
-44.68
-46.12
-47.39
-48.38
-49.28
-50.78
-53.75
-58.91
-66.34
-75.36
-84.66
-92.64
-97.80
-99.02
-95.78
-88.28
-77.50
-65.03
-52.67
-41.86
-33.23
-26.39
-20.18
-13.24
-4.56
6.12
18.30
30.98
43.09
53.74
62.37
68.59
72.18
72.95
70.90
66.32
59.85
52.37
44.79
37.72
31.43
25.83
20.65
15.69
10.90
6.40
2.48
-0.57
-2.51
-3.36
-3.40
-3.12
-3.02
-3.34
-4.02
-4.70
-5.02
-4.83
-4.19
-3.37
-2.59
-1.97
-1.52
-1.26
-1.20
-1.33
-1.53
-1.60
-1.33
-0.69
0.18
1.04
1.74
2.34
3.14
4.43
6.41
8.98
11.76
14.31
16.29
17.48
17.97
17.92
17.59
17.11
16.49
15.60
14.27
12.43
10.20
7.84
5.60
3.66
2.01
0.58
-0.62
-1.56
-2.13
-2.30
-2.12
-1.73
-1.26
-0.76
-0.27
0.18
0.50
0.54
0.28
-0.13
-0.42
-0.34
0.12
0.67
0.91
0.58
-0.27
-1.24
-1.86
-1.85
-1.30
-0.51
0.19
0.63
0.85
0.91
0.74
0.06
-1.46
-3.98
-7.32
-10.94
-14.15
-16.41
-17.49
-17.56
-17.10
-16.60
-16.45
-16.68
-17.04
-17.15
-16.66
-15.43
-13.55
-11.23
-8.64
-5.86
-2.96
-0.05
2.62
4.74
6.04
6.47
6.24
5.78
5.52
5.69
6.20
6.71
6.82
6.39
5.54
4.63
4.00
3.81
3.97
4.27
4.49
4.57
4.50
4.35
4.12
3.76
3.27
2.69
2.17
1.78
1.59
1.54
1.55
1.58
1.57
1.44
1.13
0.58
-0.22
-1.12
-1.92
-2.49
-2.82
-3.09
-3.53
-4.36
-5.67
-7.31
-8.98
-10.28
-10.83
-10.42
-9.02
-6.91
-4.47
-2.07
0.07
1.88
3.43
4.80
6.02
7.14
8.26
9.47
10.87
12.39
13.83
14.95
15.65
16.05
16.39
16.90
17.63
18.45
19.19
19.75
20.19
20.60
20.98
21.20
21.07
20.49
19.55
18.43
17.31
16.20
14.95
13.34
11.27
8.83
6.23
3.67
1.24
-1.04
-3.21
-5.24
-7.02
-8.49
-9.63
-10.52
-11.23
-11.78
-12.02
-11.80
-11.02
-9.81
-8.47
-7.44
-7.06
-7.49
-8.64
-10.25
-11.98
-13.53
-14.63
-15.07
-14.74
-13.65
-12.04
-10.30
-8.99
-8.51
-9.07
-10.51
-12.46
-14.40
-15.88
-16.63
-16.55
-15.68
-14.23
-12.47
-10.73
-9.23
-8.01
-6.90
-5.64
-4.02
-2.03
0.12
2.12
3.71
4.76
5.34
5.65
5.93
6.40
7.15
8.20
9.38
10.41
10.95
10.74
9.71
8.00
5.97
3.97
2.31
1.13
0.45
0.24
0.44
1.00
1.79
2.59
3.14
3.20
2.69
1.76
0.73
-0.08
-0.53
-0.72
-0.93
-1.44
-2.40
-3.64
-4.90
-5.91
-6.53
-6.83
-6.91
-6.78
-6.36
-5.51
-4.27
-2.83
-1.52
-0.59
-0.06
0.27
0.77
1.63
2.90
4.37
5.73
6.75
7.31
7.50
7.53
7.61
7.88
8.31
8.74
8.98
8.94
8.72
8.49
8.43
8.52
8.55
8.25
7.52
6.46
5.39
4.58
4.14
4.01
4.01
4.06
4.10
4.18
4.26
4.35
4.49
4.88
5.70
7.09
8.92
10.85
12.54
13.81
14.78
15.65
16.53
17.31
17.78
17.84
17.76
18.05
19.14
21.17
23.77
26.30
28.15
29.09
29.23
28.87
28.21
27.08
25.02
21.42
15.93
8.65
0.18
-8.52
-16.51
-23.15
-28.39
-32.65
-36.61
-40.79
-45.31
-49.81
-53.71
-56.49
-57.91
-58.02
-56.97
-54.92
-51.87
-47.73
-42.55
-36.60
-30.45
-24.83
-20.40
-17.37
-15.52
-14.18
-12.66
-10.57
-8.00
-5.47
-3.55
-2.58
-2.43
-2.63
-2.64
-2.14
-1.12
0.27
1.81
3.41
5.02
6.61
8.04
9.13
9.61
9.38
8.45
6.92
5.01
2.87
0.64
-1.56
-3.61
-5.37
-6.68
-7.41
-7.48
-6.90
-5.74
-4.06
-1.97
0.40
2.90
5.35
7.65
9.74
11.70
13.65
15.57
17.32
18.59
19.06
18.63
17.39
15.66
13.74
11.86
10.06
8.33
6.71
5.32
4.30
3.74
3.60
3.78
4.10
4.44
4.74
5.06
5.46
5.99
6.68
7.51
8.44
9.45
10.50
11.62
12.77
13.90
14.92
15.71
16.18
16.30
16.00
15.25
14.04
12.38
10.35
8.09
5.70
3.14
0.23
-3.24
-7.33
-11.81
-16.22
-20.02
-22.80
-24.50
-25.25
-25.31
-24.79
-23.67
-21.90
-19.53
-16.80
-14.08
-11.70
-9.89
-8.68
-8.06
-7.91
-8.06
-8.35
-8.59
-8.65
-8.49
-8.18
-7.74
-7.08
-5.97
-4.19
-1.74
1.17
4.06
6.50
8.27
9.36
10.00
10.45
10.87
11.27
11.53
11.52
11.20
10.68
10.20
9.98
10.10
10.44
10.69
10.59
9.99
8.99
7.88
6.93
6.29
5.93
5.71
5.43
5.00
4.41
3.71
2.93
2.07
1.12
-0.00
-1.34
-2.83
-4.36
-5.71
-6.73
-7.42
-7.94
-8.52
-9.28
-10.07
-10.61
-10.56
-9.78
-8.39
-6.64
-4.76
-2.79
-0.65
1.72
4.20
6.46
8.06
8.73
8.44
7.51
6.36
5.36
4.66
4.25
3.98
3.76
3.60
3.62
3.98
4.75
5.85
7.01
7.97
8.51
8.61
8.40
8.00
7.52
6.90
6.07
5.07
4.13
3.57
3.72
4.68
6.24
8.03
9.61
10.67
10.98
10.47
9.17
7.20
4.75
2.07
-0.65
-3.31
-5.97
-8.75
-11.66
-14.62
-17.42
-19.87
-21.89
-23.51
-24.83
-25.90
-26.77
-27.50
-28.23
-29.07
-30.07
-31.04
-31.59
-31.27
-29.74
-26.95
-23.21
-19.08
-15.18
-11.95
-9.51
-7.69
-6.13
-4.45
-2.41
0.05
2.81
5.79
8.90
12.16
15.47
18.65
21.39
23.39
24.50
24.83
24.71
24.57
24.86
25.89
27.73
30.11
32.45
34.06
34.44
33.45
31.55
29.45
27.76
26.67
25.77
24.40
21.91
18.05
13.03
7.38
1.76
-3.14
-6.73
-8.56
-8.43
-6.52
-3.40
0.18
3.43
5.78
6.98
7.08
6.40
5.38
4.53
4.29
4.92
6.35
8.24
10.10
11.56
12.48
13.03
13.47
14.03
14.86
15.88
17.01
18.12
19.08
19.74
19.93
19.42
17.96
15.40
11.83
7.67
3.50
-0.07
-2.70
-4.46
-5.67
-6.74
-7.78
-8.68
-9.25
-9.42
-9.42
-9.61
-10.29
-11.43
-12.76
-13.95
-14.86
-15.56
-16.32
-17.37
-18.88
-20.95
-23.61
-26.78
-30.32
-33.91
-37.18
-39.91
-42.04
-43.69
-44.96
-45.76
-45.88
-45.19
-43.74
-41.84
-39.87
-38.02
-36.14
-33.83
-30.67
-26.50
-21.40
-15.65
-9.56
-3.29
3.10
9.63
16.33
23.21
30.27
37.50
44.82
52.11
59.19
65.88
72.05
77.58
82.34
86.10
88.56
89.43
88.60
86.26
82.84
78.89
74.95
71.32
67.99
64.66
60.79
55.77
49.26
41.30
32.41
23.45
15.31
8.59
3.46
-0.31
-3.14
-5.50
-7.81
-10.42
-13.74
-18.11
-23.76
-30.60
-38.18
-45.78
-52.64
-58.27
-62.64
-66.19
-69.59
-73.36
-77.58
-81.84
-85.34
-87.35
-87.52
-85.92
-82.90
-78.84
-73.93
-68.19
-61.71
-54.77
-47.91
-41.71
-36.53
-32.47
-29.31
-26.73
-24.49
-22.47
-20.66
-19.07
-17.63
-16.25
-14.81
-13.19
-11.36
-9.32
-7.10
-4.75
-2.27
0.38
3.25
6.32
9.60
13.01
16.44
19.77
22.85
25.46
27.35
28.24
27.99
26.61
24.33
21.54
18.68
16.10
14.02
12.44
11.33
10.50
9.82
9.12
8.28
7.16
5.63
3.56
0.90
-2.38
-6.23
-10.54
-15.17
-19.99
-24.84
-29.58
-34.05
-38.01
-41.20
-43.36
-44.37
-44.25
-43.16
-41.33
-38.97
-36.29
-33.39
-30.35
-27.17
-23.89
-20.51
-17.11
-13.78
-10.53
-7.32
-4.03
-0.57
3.06
6.76
10.30
13.48
16.19
18.36
19.97
21.03
21.65
22.02
22.44
23.23
24.54
26.24
27.97
29.36
30.10
30.09
29.48
28.42
27.09
25.60
24.09
22.79
21.84
21.34
21.21
21.28
21.31
21.03
20.25
18.80
16.64
13.94
11.00
8.25
6.08
4.63
3.82
3.38
3.03
2.66
2.22
1.77
1.32
0.81
0.18
-0.55
-1.26
-1.70
-1.63
-0.88
0.57
2.56
4.84
7.15
9.35
11.36
13.22
14.96
16.45
17.51
17.87
17.44
16.29
14.71
13.10
11.84
11.11
10.95
11.27
11.97
12.95
14.16
15.62
17.40
19.57
22.14
24.97
27.79
30.30
32.28
33.70
34.61
35.08
35.08
34.53
33.42
31.90
30.26
28.73
27.34
25.82
23.68
20.53
16.27
11.23
6.00
1.18
-2.94
-6.53
-10.11
-14.27
-19.35
-25.17
-31.08
-36.22
-39.88
-41.81
-42.17
-41.47
-40.22
-38.72
-37.09
-35.44
-34.00
-33.11
-33.03
-33.77
-34.99
-36.23
-37.11
-37.54
-37.79
-38.20
-38.96
-39.94
-40.73
-40.80
-39.76
-37.43
-33.79
-28.88
-22.77
-15.58
-7.56
0.85
9.09
16.53
22.70
27.36
30.54
32.45
33.38
33.59
33.26
32.47
31.28
29.73
27.92
26.02
24.23
22.67
21.37
20.28
19.28
18.26
17.22
16.24
15.43
14.87
14.54
14.33
14.14
13.93
13.82
13.99
14.50
15.22
15.78
15.83
15.12
13.78
12.19
10.78
9.73
8.96
8.11
6.85
4.99
2.61
-0.12
-3.05
-6.10
-9.27
-12.63
-16.12
-19.62
-22.97
-26.06
-28.80
-31.16
-33.09
-34.57
-35.45
-35.61
-35.03
-33.76
-31.95
-29.74
-27.17
-24.15
-20.45
-15.95
-10.71
-5.04
0.56
5.56
9.63
12.62
14.58
15.66
16.03
15.83
15.12
13.98
12.45
10.72
9.01
7.66
6.88
6.66
6.73
6.71
6.40
5.82
5.26
5.04
5.17
5.37
5.15
4.21
2.58
0.65
-1.13
-2.45
-3.33
-4.01
-4.74
-5.63
-6.62
-7.62
-8.58
-9.57
-10.70
-12.11
-13.83
-15.78
-17.84
-19.84
-21.65
-23.12
-24.23
-24.99
-25.54
-26.08
-26.76
-27.67
-28.77
-29.81
-30.47
-30.41
-29.43
-27.54
-24.93
-21.92
-18.79
-15.66
-12.52
-9.32
-6.09
-2.98
-0.22
2.12
4.14
6.10
8.25
10.71
13.32
15.84
18.02
19.79
21.15
22.22
23.04
23.64
24.06
24.32
24.47
24.50
24.44
24.23
23.86
23.29
22.47
21.36
19.94
18.29
16.61
15.12
13.95
13.05
12.21
11.11
9.54
7.39
4.73
1.68
-1.61
-5.01
-8.31
-11.34
-13.89
-15.77
-16.88
-17.21
-16.91
-16.25
-15.64
-15.44
-15.85
-16.88
-18.21
-19.36
-19.92
-19.67
-18.64
-17.09
-15.35
-13.76
-12.47
-11.49
-10.65
-9.66
-8.21
-6.08
-3.25
0.05
3.50
6.78
9.74
12.36
14.69
16.73
18.39
19.53
20.15
20.34
20.30
20.18
20.00
19.66
19.04
18.07
16.86
15.64
14.69
14.09
13.84
13.77
13.62
13.19
12.40
11.30
10.04
8.73
7.41
6.10
4.77
3.46
2.28
1.32
0.62
0.12
-0.31
-0.73
-1.10
-1.30
-1.22
-0.92
-0.56
-0.42
-0.70
-1.42
-2.39
-3.28
-3.82
-3.86
-3.50
-3.02
-2.89
-3.47
-4.96
-7.18
-9.64
-11.71
-12.87
-12.91
-12.02
-10.61
-9.14
-7.97
-7.24
-6.92
-6.87
-6.87
-6.68
-6.02
-4.72
-2.79
-0.41
2.11
4.51
6.65
8.51
10.08
11.27
11.89
11.86
11.25
10.28
9.28
8.45
7.81
7.20
6.47
5.54
4.52
3.60
2.95
2.65
2.65
2.84
3.12
3.40
3.61
3.67
3.49
3.01
2.27
1.41
0.66
0.27
0.43
1.18
2.38
3.75
4.93
5.63
5.65
4.98
3.76
2.26
0.75
-0.51
-1.43
-2.14
-2.84
-3.74
-4.93
-6.33
-7.66
-8.62
-8.97
-8.57
-7.49
-5.93
-4.13
-2.40
-0.97
0.07
0.82
1.52
2.45
3.75
5.41
7.33
9.34
11.40
13.53
15.74
17.96
20.04
21.84
23.29
24.30
24.79
24.69
23.98
22.84
21.71
21.16
21.58
22.99
24.98
26.86
28.01
28.12
27.25
25.71
23.83
21.84
19.84
17.93
16.30
15.17
14.76
15.14
16.19
17.56
18.77
19.28
18.65
16.65
13.25
8.73
3.48
-2.12
-7.85
-13.65
-19.59
-25.63
-31.61
-37.20
-42.02
-45.76
-48.30
-49.60
-49.64
-48.37
-45.80
-42.08
-37.54
-32.71
-28.06
-23.92
-20.30
-17.05
-13.99
-11.08
-8.45
-6.23
-4.46
-2.91
-1.22
0.97
3.81
7.22
10.87
14.38
17.42
19.75
21.26
21.99
22.14
22.00
21.89
21.95
22.02
21.72
20.71
18.91
16.58
14.15
11.91
9.73
7.19
3.79
-0.61
-5.72
-10.90
-15.53
-19.22
-21.96
-23.92
-25.27
-26.09
-26.36
-26.10
-25.44
-24.71
-24.32
-24.60
-25.63
-27.15
-28.59
-29.21
-28.42
-26.09
-22.66
-18.99
-16.04
-14.46
-14.39
-15.56
-17.36
-19.19
-20.55
-21.13
-20.86
-19.89
-18.48
-16.92
-15.42
-13.96
-12.46
-10.81
-9.08
-7.35
-5.74
-4.21
-2.59
-0.75
1.27
3.23
4.81
5.81
6.25
6.28
6.10
5.73
5.03
3.82
1.97
-0.47
-3.29
-6.28
-9.16
-11.85
-14.41
-17.06
-20.00
-23.32
-26.88
-30.27
-33.11
-35.26
-36.93
-38.61
-40.74
-43.49
-46.67
-49.85
-52.71
-55.26
-57.79
-60.62
-63.81
-67.17
-70.38
-73.23
-75.70
-77.92
-79.98
-81.87
-83.38
-84.17
-83.86
-82.18
-79.01
-74.16
-67.32
-58.08
-46.06
-31.10
-13.44
6.22
26.61
46.17
63.54
77.86
89.02
97.54
104.46
111.10
118.83
128.46
140.09
153.52
168.50
184.89
202.55
221.47
241.77
263.47
285.35
304.94
319.58
327.38
327.54
320.02
305.16
283.54
256.01
222.46
182.40
136.66
88.25
41.61
0.61
-32.79
-58.89
-79.90
-100.68
-127.51
-165.07
-214.99
-276.22
-346.82
-424.71
-507.33
-578.18
-617.47
-612.98
-568.03
-498.36
-421.95
-352.05
-295.20
-251.98
-221.33
-198.17
-180.70
-168.91
-162.31
-158.97
-155.96
-149.98
-137.82
-118.86
-94.80
-69.77
-47.76
-30.68
-18.07
-7.94
2.07
14.06
29.19
46.98
64.96
80.61
92.69
101.63
108.96
116.65
126.57
140.37
159.57
185.22
218.14
258.08
302.41
345.40
379.34
397.24
395.79
376.86
346.34
311.64
278.62
249.99
225.57
203.97
184.40
167.14
152.79
140.98
129.92
117.37
102.22
85.64
70.80
61.08
57.59
57.79
56.35
47.81
29.61
3.68
-24.33
-47.70
-61.77
-65.55
-61.31
-52.49
-41.71
-30.00
-17.54
-5.13
5.29
11.24
11.07
5.21
-3.88
-12.92
-19.21
-21.50
-19.84
-14.80
-6.72
4.61
19.27
36.46
53.89
67.81
73.90
68.51
50.04
20.13
-15.92
-49.85
-72.59
-77.20
-61.70
-30.25
8.06
42.53
64.73
70.86
61.82
41.22
12.99
-19.81
-54.79
-89.17
-119.37
-141.91
-155.11
-160.34
-161.80
-164.70
-172.70
-186.23
-202.32
-215.75
-220.86
-213.60
-192.90
-161.63
-126.27
-95.55
-77.83
-78.12
-96.37
-127.60
-164.08
-198.22
-224.87
-241.73
-248.41
-245.20
-232.51
-211.21
-183.42
-152.51
-122.29
-95.69
-73.65
-54.93
-36.85
-16.65
7.27
34.58
63.01
89.10
109.27
121.07
123.88
118.92
108.47
94.77
79.14
61.91
42.90
22.26
0.80
-20.23
-39.70
-57.05
-72.36
-85.79
-97.09
-105.35
-109.38
-108.25
-101.86
-90.95
-76.61
-59.76
-40.89
-20.10
2.67
27.37
53.98
82.74
114.17
148.61
185.58
223.42
259.60
291.67
318.13
339.03
355.50
368.80
379.25
385.83
386.60
379.92
365.85
346.87
327.75
314.08
310.33
318.27
336.38
360.70
386.51
409.98
429.13
443.61
453.80
459.91
461.88
459.64
453.67
445.08
435.18
424.62
412.88
398.10
377.68
349.20
311.13
263.38
207.13
144.60
78.21
10.18
-57.94
-125.24
-191.29
-255.90
-319.32
-382.43
-446.50
-512.04
-577.20
-636.53
-681.45
-702.70
-693.70
-653.24
-585.81
-499.63
-403.67
-305.80
-212.41
-129.25
-61.58
-12.53
18.83
37.80
52.00
67.40
85.31
102.28
112.87
112.94
101.79
81.67
56.05
27.94
-0.70
-28.84
-56.10
-82.67
-109.83
-139.63
-173.97
-213.50
-256.49
-298.81
-334.77
-358.51
-365.63
-354.94
-329.32
-295.81
-263.60
-240.30
-228.57
-225.14
-223.18
-216.91
-205.24
-192.34
-184.56
-185.86
-194.96
-206.36
-213.31
-211.58
-200.87
-184.17
-165.78
-149.79
-138.79
-133.73
-134.06
-138.12
-143.73
-148.84
-152.06
-152.67
-150.23
-144.12
-133.45
-117.76
-97.36
-72.92
-44.55
-10.42
33.42
90.66
161.26
239.14
312.97
370.25
402.49
408.47
393.86
367.80
338.49
310.07
282.42
253.20
220.65
185.29
149.69
116.65
87.72
62.02
36.78
8.87
-23.96
-62.56
-106.41
-154.05
-202.64
-247.13
-280.41
-294.80
-284.81
-250.07
-196.65
-135.76
-80.13
-39.57
-17.14
-9.45
-9.41
-9.44
-3.70
11.46
37.90
75.51
121.41
171.06
216.21
245.82
248.34
216.35
149.95
57.86
-45.06
-141.87
-214.06
-249.35
-245.34
-209.96
-156.95
-100.25
-49.55
-9.15
20.89
49.14
83.90
128.79
180.69
233.17
280.42
320.09
352.58
379.81
412.55
460.81
529.34
615.32
712.62
815.69
922.68
1033.21
1092.46
1055.22
905.76
672.14
406.00
153.63
-59.98
-225.85
-346.39
-430.66
-482.08
-503.86
-500.53
-482.62
-460.84
-447.15
-447.55
-462.49
-487.19
-506.58
-504.87
-472.21
-409.44
-324.01
-228.65
-135.34
-52.84
15.24
74.57
133.97
200.30
261.68
328.71
388.46
429.71
444.03
427.94
385.75
326.66
261.19
197.14
140.36
89.08
42.15
-1.18
-40.14
-72.16
-94.90
-107.97
-113.54
-113.67
-113.31
-114.10
-115.99
-117.56
-117.28
-114.49
-110.05
-106.08
-104.18
-107.45
-116.52
-131.00
-149.51
-170.50
-193.03
-217.22
-243.64
-271.67
-300.01
-325.18
-344.68
-356.71
-360.33
-355.44
-342.54
-322.11
-293.82
-257.00
-210.70
-157.95
-102.25
-45.38
13.71
77.61
148.18
224.61
302.44
373.78
424.14
441.64
422.44
372.12
301.63
222.03
141.13
62.90
-11.24
-87.13
-168.78
-254.97
-340.31
-419.95
-493.26
-563.45
-634.96
-669.97
-644.11
-558.97
-441.07
-319.21
-207.74
-108.00
-16.73
68.07
145.53
206.90
245.79
262.89
264.75
258.44
246.56
227.15
197.38
157.49
107.55
52.18
-0.11
-41.25
-67.36
-80.07
-84.09
-83.81
-81.22
-79.52
-83.49
-92.53
-105.25
-118.77
-128.95
-130.45
-117.86
-87.93
-43.63
7.38
55.77
93.13
115.37
122.87
119.36
109.76
97.85
84.79
70.29
54.33
37.43
21.43
7.88
-2.62
-10.44
-16.35
-20.93
-23.65
-22.48
-18.43
-11.02
-0.13
13.50
28.55
43.58
57.66
70.72
83.69
97.91
115.20
136.40
160.81
185.99
208.25
223.61
229.09
223.67
208.54
187.08
163.22
140.30
120.32
103.85
90.33
78.88
68.67
59.13
50.17
41.61
33.16
24.52
15.60
6.69
-1.42
-7.74
-11.41
-11.97
-9.75
-5.83
-1.70
1.27
2.20
0.97
-1.87
-5.39
-8.62
-10.97
-12.27
-12.71
-12.58
-12.07
-11.15
-9.62
-7.27
-3.98
0.16
4.83
9.54
13.67
16.68
18.25
18.33
17.14
15.01
12.23
9.03
5.59
2.13
-1.07
-3.84
-6.26
-8.74
-11.92
-16.28
-21.85
-28.00
-33.62
-37.58
-39.24
-38.69
-36.81
-34.78
-33.59
-33.62
-34.58
-35.81
-36.63
-36.65
-35.89
-34.51
-32.73
-30.68
-28.58
-26.75
-25.73
-25.98
-27.56
-29.81
-31.43
-30.86
-26.86
-18.99
-7.84
4.96
17.27
26.90
32.22
32.63
28.58
21.49
13.07
4.94
-1.79
-6.52
-9.01
-9.16
-6.97
-2.66
3.15
9.47
15.15
19.18
21.04
20.71
18.51
14.88
10.15
4.67
-1.09
-6.39
-10.29
-12.09
-11.66
-9.70
-7.55
-6.73
-8.24
-12.16
-17.53
-22.72
-26.12
-26.65
-24.03
-18.75
-11.83
-4.39
2.52
8.15
12.14
14.48
15.53
15.79
15.77
15.77
15.88
15.98
15.87
15.41
14.56
13.37
12.04
10.75
9.59
8.48
7.22
5.58
3.42
0.73
-2.34
-5.41
-8.04
-9.92
-11.03
-11.67
-12.35
-13.48
-15.38
-18.07
-21.19
-24.17
-26.58
-28.30
-29.62
-31.03
-33.11
-36.35
-41.10
-46.63
-51.66
-54.92
-55.80
-54.56
-52.05
-49.20
-46.80
-45.36
-43.42
-38.98
-30.62
-18.75
-5.79
4.96
10.61
9.57
1.80
-8.62
-16.27
-16.76
-9.33
2.69
13.77
19.33
17.72
11.18
8.91
22.40
61.14
128.71
222.14
334.73
459.23
589.00
694.73
746.02
721.58
622.83
473.87
307.73
152.38
24.37
-71.44
-138.96
-182.89
-207.37
-215.24
-209.71
-195.66
-178.88
-164.57
-156.19
-155.07
-157.74
-158.89
-153.73
-140.78
-122.36
-102.78
-86.04
-74.67
-69.33
-67.44
-65.15
-59.09
-48.05
-33.51
-18.24
-5.01
4.30
8.81
9.50
8.11
6.32
4.76
2.76
-1.02
-7.71
-17.78
-31.11
-46.60
-62.66
-77.72
-89.52
-98.24
-104.34
-108.53
-111.41
-113.65
-115.56
-117.08
-117.98
-118.03
-117.36
-116.27
-115.37
-115.21
-116.32
-118.61
-121.27
-123.05
-122.63
-119.16
-112.56
-104.56
-95.36
-85.84
-76.46
-66.99
-56.68
-45.02
-31.97
-18.51
-6.32
3.17
8.63
9.28
4.84
-4.37
-16.78
-28.95
-36.48
-35.21
-22.79
-0.81
25.55
49.48
65.41
71.39
69.74
64.78
60.59
59.90
62.96
68.78
76.44
85.80
95.11
105.23
115.52
123.79
128.17
127.24
121.11
111.25
99.89
89.40
81.06
76.13
71.49
65.19
56.26
45.30
33.88
23.90
17.25
14.32
13.82
13.58
12.48
10.10
7.33
5.49
5.75
9.52
17.22
28.98
44.82
64.81
87.21
108.22
122.15
118.13
95.84
61.49
24.89
-5.11
-22.52
-30.41
-35.11
-43.23
-58.39
-79.89
-105.19
-131.59
-157.27
-180.10
-196.67
-202.02
-191.40
-156.66
-96.12
-16.54
68.75
144.41
198.94
227.98
233.56
221.03
196.18
162.51
120.33
67.91
3.76
-70.68
-143.02
-196.11
-218.22
-208.51
-175.48
-131.93
-90.25
-58.32
-37.65
-24.59
-14.59
-5.10
3.71
9.80
11.19
7.66
1.31
-4.01
-4.70
0.19
8.91
18.15
24.70
26.75
24.52
19.84
15.63
14.55
17.51
23.76
32.08
41.82
52.99
65.29
76.95
84.44
83.56
70.88
46.12
13.08
-21.41
-50.39
-69.52
-78.49
-80.12
-78.66
-77.53
-78.24
-80.67
-84.04
-87.72
-91.51
-95.36
-98.96
-102.45
-106.07
-110.18
-115.39
-122.13
-130.48
-139.85
-149.29
-157.74
-165.08
-171.88
-179.64
-190.76
-207.68
-231.63
-261.38
-293.03
-316.57
-323.56
-308.74
-272.28
-219.93
-160.88
-103.86
-54.30
-13.23
21.51
52.11
79.48
102.68
120.02
130.75
136.37
140.21
146.16
157.35
174.97
198.59
226.24
254.32
277.67
290.87
289.35
271.40
239.59
200.33
162.39
133.69
118.50
116.31
124.11
137.38
151.80
163.98
171.45
172.64
166.54
152.29
129.16
99.08
64.42
27.32
-10.77
-48.66
-84.76
-117.36
-145.53
-169.47
-185.98
-191.47
-183.16
-160.54
-125.53
-81.59
-32.96
16.02
61.88
108.44
161.78
227.33
306.98
398.88
499.53
605.56
714.65
792.82
813.00
763.48
654.65
509.71
350.58
192.50
46.10
-80.12
-180.35
-248.29
-283.30
-291.00
-281.55
-265.29
-248.88
-234.81
-223.31
-214.64
-206.20
-196.19
-184.12
-171.23
-159.42
-149.63
-141.80
-135.52
-130.55
-125.51
-119.99
-114.26
-109.21
-105.69
-103.99
-103.92
-104.60
-103.80
-97.86
-83.97
-60.43
-27.96
9.94
47.54
78.46
98.36
107.38
108.00
102.07
91.23
76.60
59.18
40.02
19.57
-1.87
-21.07
-38.63
-59.56
-89.38
-131.57
-186.09
-250.22
-320.58
-393.46
-464.45
-513.88
-529.35
-511.27
-473.01
-431.09
-396.44
-372.19
-365.76
-363.86
-355.02
-334.33
-301.91
-261.52
-218.36
-172.56
-128.33
-88.71
-52.85
-20.68
7.35
30.14
46.52
56.29
59.24
57.50
54.42
53.73
56.14
62.83
73.70
87.77
103.65
117.36
129.64
142.75
158.66
177.59
202.99
236.28
276.19
318.95
355.89
386.81
414.47
441.43
470.09
508.19
560.15
625.96
701.13
773.76
842.87
911.20
981.73
1009.25
964.28
844.18
676.17
535.89
423.50
328.49
245.15
157.94
68.34
-11.43
-74.92
-122.48
-161.38
-205.80
-257.50
-313.62
-371.16
-425.63
-469.37
-501.72
-525.38
-546.88
-576.12
-613.43
-656.98
-705.99
-758.85
-784.99
-765.38
-699.45
-606.48
-510.79
-422.86
-343.89
-273.28
-211.12
-158.03
-125.01
-110.60
-110.68
-117.91
-122.20
-117.47
-104.73
-89.47
-77.76
-76.32
-81.81
-88.27
-84.95
-60.35
-8.20
70.11
168.05
277.88
391.05
499.74
585.24
627.34
613.98
549.60
453.28
349.90
260.50
200.20
161.76
132.08
100.19
59.97
10.27
-47.37
-108.38
-166.83
-210.80
-229.95
-220.09
-186.08
-139.95
-95.67
-65.50
-56.51
-69.19
-97.78
-134.58
-171.88
-204.87
-232.36
-255.20
-273.79
-285.21
-282.95
-260.95
-219.62
-166.46
-113.18
-71.47
-42.81
-23.86
-8.46
8.62
29.55
52.68
75.67
96.13
114.89
134.13
154.37
174.65
193.14
207.96
217.22
219.66
214.77
203.45
188.11
171.83
158.05
149.45
146.72
148.88
153.95
158.84
160.49
155.42
139.89
111.68
71.84
25.28
-19.48
-52.53
-67.61
-61.93
-37.75
-1.39
39.26
76.74
104.53
117.82
113.52
91.24
54.63
11.19
-29.65
-59.53
-74.35
-76.40
-72.08
-69.15
-73.18
-85.57
-104.43
-125.40
-143.12
-149.43
-140.48
-115.96
-81.34
-47.61
-27.48
-29.45
-52.69
-86.34
-114.24
-123.29
-108.89
-76.83
-39.06
-7.21
12.97
22.48
26.19
28.93
32.13
34.39
32.61
24.85
11.18
-6.31
-24.73
-42.41
-59.85
-79.65
-104.42
-133.98
-163.80
-185.75
-191.24
-175.52
-140.80
-95.86
-52.38
-19.54
-0.61
8.43
14.94
26.17
46.05
73.28
102.44
125.83
135.97
129.99
109.96
82.02
54.02
32.46
19.93
15.10
14.42
14.50
13.86
12.82
12.01
11.17
8.68
2.88
-6.42
-16.45
-22.43
-19.63
-6.18
15.17
37.95
54.74
60.50
54.77
41.69
27.57
17.96
15.32
18.62
24.81
30.71
34.45
35.77
35.34
33.96
31.93
29.18
25.37
20.65
15.71
11.57
9.14
8.72
9.81
11.42
12.52
12.57
11.73
10.61
9.85
9.74
10.17
10.76
11.15
11.23
11.07
10.96
11.11
11.74
12.89
14.50
16.42
18.40
20.11
21.35
21.98
21.99
21.41
20.27
18.53
16.18
13.35
10.00
6.29
2.37
-1.63
-5.57
-9.35
-12.87
-16.12
-19.01
-21.54
-23.55
-24.96
-25.63
-25.56
-24.91
-23.90
-22.81
-21.76
-20.83
-19.99
-19.21
-18.44
-17.67
-16.86
-15.91
-14.81
-13.59
-12.37
-11.26
-10.36
-9.61
-8.91
-8.17
-7.33
-6.43
-5.51
-4.54
-3.50
-2.37
-1.28
-0.36
0.15
0.11
-0.52
-1.58
-2.81
-3.86
-4.46
-4.43
-3.85
-2.94
-2.01
-1.33
-1.07
-1.18
-1.54
-2.03
-2.54
-3.07
-3.73
-4.58
-5.69
-7.12
-8.67
-10.25
-11.77
-13.17
-14.36
-15.19
-15.40
-14.71
-12.85
-9.73
-5.52
-0.69
4.17
8.49
11.84
14.12
15.45
16.10
16.36
16.38
16.19
15.76
15.12
14.31
13.51
12.88
12.52
12.40
12.22
11.67
10.52
8.84
6.96
5.39
4.52
4.44
4.88
5.37
5.52
5.24
4.69
4.17
3.85
3.66
3.29
2.47
1.05
-0.85
-2.89
-4.75
-6.20
-7.29
-8.31
-9.65
-11.58
-14.06
-16.75
-19.09
-20.55
-20.94
-20.45
-19.64
-19.10
-19.23
-20.11
-21.51
-23.06
-24.47
-25.58
-26.39
-26.96
-27.29
-27.23
-26.59
-25.13
-22.76
-19.58
-15.93
-12.28
-9.02
-6.33
-4.20
-2.48
-1.07
0.02
0.61
0.64
0.19
-0.47
-0.95
-1.00
-0.56
0.16
0.78
1.02
0.73
0.00
-0.87
-1.57
-1.86
-1.66
-1.08
-0.28
0.49
1.12
1.55
1.84
2.08
2.36
2.67
2.96
3.10
3.02
2.67
2.08
1.31
0.43
-0.58
-1.69
-2.91
-4.12
-5.15
-5.85
-6.14
-6.20
-6.42
-7.23
-8.98
-11.60
-14.62
-17.28
-18.89
-19.04
-17.77
-15.41
-12.33
-8.75
-4.63
0.17
5.71
11.74
17.81
23.39
28.05
31.64
34.29
36.24
37.72
38.75
39.21
38.91
37.82
36.15
34.28
32.60
31.28
30.21
29.00
27.29
24.92
21.99
18.77
15.55
12.43
9.31
6.04
2.52
-1.19
-4.84
-8.18
-10.97
-13.06
-14.51
-15.43
-15.91
-15.98
-15.60
-14.73
-13.51
-12.33
-11.72
-12.20
-14.01
-16.96
-20.51
-24.02
-26.94
-28.99
-30.14
-30.52
-30.28
-29.54
-28.44
-27.17
-25.88
-24.59
-23.14
-21.21
-18.40
-14.43
-9.24
-3.02
3.80
10.66
17.06
22.58
27.08
30.69
33.61
36.13
38.38
40.28
41.46
41.46
39.83
36.32
31.04
24.47
17.40
10.62
4.79
0.16
-3.33
-5.96
-7.96
-9.48
-10.53
-11.13
-11.39
-11.46
-11.52
-11.53
-11.39
-10.99
-10.36
-9.72
-9.39
-9.59
-10.26
-11.15
-11.92
-12.44
-12.87
-13.58
-14.95
-17.14
-20.07
-23.40
-26.76
-29.84
-32.44
-34.52
-36.10
-37.25
-38.08
-38.68
-39.06
-39.07
-38.40
-36.66
-33.53
-28.97
-23.25
-16.97
-10.85
-5.48
-1.21
1.95
4.30
6.23
8.09
10.11
12.34
14.81
17.54
20.51
23.64
26.73
29.49
31.61
32.96
33.64
34.03
34.62
35.78
37.60
39.89
42.19
44.04
45.18
45.54
45.31
44.71
43.91
42.92
41.62
39.80
37.31
34.06
30.00
25.27
20.02
14.55
9.21
4.29
-0.06
-3.88
-7.35
-10.68
-13.94
-17.08
-19.98
-22.50
-24.66
-26.64
-28.72
-31.11
-33.84
-36.58
-38.75
-39.67
-38.79
-35.90
-31.25
-25.46
-19.26
-13.27
-7.82
-2.99
1.30
5.09
8.40
11.18
13.43
15.19
16.51
17.39
17.82
17.76
17.24
16.29
14.98
13.45
11.94
10.81
10.40
10.97
12.46
14.53
16.66
18.44
19.73
20.69
21.66
22.87
24.35
25.86
27.07
27.69
27.59
26.74
25.21
23.12
20.61
17.84
14.94
12.04
9.14
6.24
3.35
0.49
-2.28
-4.98
-7.70
-10.60
-13.81
-17.24
-20.59
-23.40
-25.21
-25.72
-24.87
-22.74
-19.47
-15.20
-10.09
-4.39
1.51
7.07
11.78
15.29
17.52
18.76
19.45
20.03
20.75
21.57
22.26
22.54
22.24
21.36
20.03
18.44
16.78
15.12
13.51
12.02
10.77
9.89
9.47
9.52
9.87
10.20
10.12
9.27
7.52
5.04
2.28
-0.30
-2.40
-4.04
-5.54
-7.23
-9.31
-11.72
-14.22
-16.47
-18.24
-19.42
-20.02
-20.14
-20.00
-19.86
-19.96
-20.52
-21.65
-23.37
-25.61
-28.15
-30.55
-32.14
-32.18
-30.06
-25.68
-19.52
-12.63
-6.14
-0.93
2.65
4.82
6.12
7.11
8.15
9.35
10.62
11.81
12.78
13.38
13.54
13.21
12.44
11.35
10.16
9.16
8.59
8.61
9.17
10.03
10.84
11.22
10.94
9.95
8.38
6.47
4.49
2.67
1.15
-0.03
-0.94
-1.71
-2.52
-3.48
-4.67
-6.08
-7.68
-9.45
-11.32
-13.25
-15.18
-17.04
-18.78
-20.39
-21.86
-23.17
-24.17
-24.60
-24.13
-22.50
-19.61
-15.63
-10.93
-5.98
-1.29
2.82
6.16
8.75
10.64
11.94
12.72
13.07
13.16
13.18
13.32
13.62
13.98
14.13
13.83
13.03
11.93
10.94
10.39
10.36
10.57
10.55
9.85
8.36
6.30
4.10
2.23
0.87
-0.06
-0.85
-1.83
-3.26
-5.19
-7.57
-10.25
-12.98
-15.42
-17.30
-18.40
-18.76
-18.61
-18.38
-18.64
-19.77
-21.91
-24.76
-27.68
-29.88
-30.68
-29.69
-26.89
-22.62
-17.32
-11.50
-5.62
-0.05
4.83
8.74
11.48
13.10
13.85
14.11
14.19
14.22
14.12
13.67
12.69
11.18
9.39
7.73
6.65
6.45
7.15
8.48
9.97
11.18
11.74
11.56
10.75
9.57
8.29
7.15
6.26
5.59
4.99
4.27
3.25
1.88
0.18
-1.74
-3.75
-5.74
-7.65
-9.48
-11.22
-12.83
-14.30
-15.66
-16.88
-17.88
-18.43
-18.16
-16.77
-14.13
-10.41
-5.99
-1.35
3.17
7.36
11.16
14.50
17.35
19.67
21.56
23.17
24.69
26.21
27.56
28.44
28.62
28.01
26.84
25.51
24.40
23.75
23.54
23.52
23.44
23.14
22.60
22.03
21.72
21.83
22.36
23.15
23.93
24.57
25.20
26.13
27.77
30.30
33.59
37.23
40.69
43.62
46.09
48.60
51.84
56.48
62.68
70.09
77.94
85.44
92.15
98.32
104.75
112.58
122.79
135.91
151.88
170.22
190.28
211.47
233.47
256.09
279.38
303.64
329.49
357.64
388.28
420.23
450.43
474.36
487.19
485.56
468.77
439.04
400.45
357.35
312.88
268.61
224.96
182.19
140.95
102.30
67.07
35.34
6.35
-21.04
-47.60
-73.26
-97.19
-118.16
-135.34
-148.85
-159.82
-170.01
-181.13
-194.15
-208.98
-224.70
-240.06
-254.12
-266.74
-278.58
-290.82
-304.77
-321.54
-341.74
-365.15
-390.36
-414.68
-434.59
-446.66
-448.84
-441.28
-426.29
-407.41
-387.84
-369.23
-351.43
-333.27
-313.69
-292.75
-271.67
-252.17
-235.57
-222.19
-211.42
-202.18
-193.44
-184.48
-174.85
-164.11
-151.78
-137.43
-121.02
-103.07
-84.70
-67.34
-52.24
-40.17
-31.12
-24.42
-19.00
-13.68
-7.60
-0.45
7.45
15.33
22.16
27.16
29.98
30.82
30.35
29.42
28.77
28.94
30.09
32.10
34.51
36.71
38.05
38.06
36.61
33.91
30.46
26.90
23.77
21.40
19.90
19.18
19.01
19.11
19.20
19.05
18.46
17.32
15.61
13.40
10.86
8.24
5.70
3.33
1.05
-1.33
-3.94
-6.81
-9.81
-12.71
-15.37
-17.75
-20.00
-22.29
-24.70
-27.19
-29.55
-31.43
-32.43
-32.15
-30.26
-26.63
-21.38
-14.95
-8.06
-1.51
3.88
7.60
9.49
9.91
9.65
9.65
10.72
13.19
16.78
20.72
24.10
26.25
26.93
26.41
25.22
24.01
23.29
23.36
24.28
25.89
27.79
29.46
30.40
30.25
28.95
26.68
23.89
21.08
18.70
16.96
15.80
14.98
14.16
13.05
11.53
9.61
7.38
5.01
2.57
0.21
-1.92
-3.60
-4.65
-5.06
-5.00
-4.85
-5.02
-5.82
-7.34
-9.40
-11.58
-13.32
-14.08
-13.55
-11.71
-8.90
-5.67
-2.54
0.19
2.53
4.67
6.84
9.14
11.55
14.03
16.59
19.28
22.12
24.95
27.39
29.02
29.50
28.73
26.94
24.61
22.33
20.58
19.67
19.57
19.96
20.38
20.41
19.85
18.77
17.49
16.34
15.50
14.91
14.29
13.34
11.81
9.61
6.87
3.95
1.36
-0.40
-1.05
-0.75
-0.06
0.24
-0.44
-2.28
-4.85
-7.34
-8.96
-9.23
-8.24
-6.63
-5.41
-5.55
-7.69
-11.77
-16.95
-21.71
-24.27
-23.17
-17.79
-8.69
2.64
14.18
23.89
30.25
32.44
30.31
24.32
15.45
5.13
-4.93
-13.11
-18.39
-20.62
-20.45
-18.82
-16.43
-13.45
-9.59
-4.59
1.46
8.18
15.15
22.30
29.88
38.04
46.24
52.93
56.04
53.94
46.52
35.55
24.09
15.28
11.09
11.71
15.67
20.78
25.08
27.41
27.63
26.12
23.44
20.06
16.23
12.25
8.42
5.09
2.52
0.71
-0.67
-2.13
-4.23
-7.34
-11.48
-16.26
-21.06
-25.25
-28.44
-30.56
-31.77
-32.27
-32.12
-31.22
-29.39
-26.51
-22.57
-17.80
-12.52
-7.12
-1.95
2.81
7.17
11.37
15.71
20.37
25.27
30.05
34.23
37.37
39.31
40.12
40.07
39.47
38.55
37.44
36.20
34.76
32.99
30.68
27.63
23.82
19.42
14.76
10.23
6.16
2.73
-0.04
-2.14
-3.62
-4.47
-4.79
-4.71
-4.42
-4.09
-3.83
-3.62
-3.37
-3.02
-2.53
-1.99
-1.52
-1.30
-1.49
-2.19
-3.41
-5.11
-7.11
-9.29
-11.50
-13.70
-15.88
-18.06
-20.31
-22.72
-25.34
-28.17
-31.07
-33.76
-35.94
-37.30
-37.61
-36.71
-34.45
-30.71
-25.47
-18.89
-11.42
-3.73
3.52
9.85
15.15
19.50
23.13
26.13
28.50
30.13
30.94
30.87
30.01
28.55
26.73
24.86
23.20
21.91
21.03
20.48
20.10
19.75
19.30
18.57
17.46
15.91
14.03
12.05
10.28
8.93
8.01
7.36
6.69
5.80
4.59
3.12
1.49
-0.13
-1.60
-2.80
-3.63
-4.14
-4.40
-4.63
-5.00
-5.67
-6.69
-8.12
-9.90
-11.88
-13.82
-15.45
-16.62
-17.43
-18.17
-19.25
-20.92
-23.08
-25.28
-26.83
-27.06
-25.48
-22.04
-17.04
-11.06
-4.83
1.01
6.01
10.04
13.23
15.75
17.75
19.25
20.27
20.87
21.25
21.58
21.86
21.89
21.45
20.43
19.00
17.53
16.41
15.89
15.86
16.09
16.26
16.23
15.96
15.49
14.86
14.03
12.94
11.57
9.94
8.12
6.19
4.25
2.42
0.86
-0.32
-1.06
-1.49
-1.81
-2.23
-2.89
-3.81
-4.92
-6.14
-7.45
-8.93
-10.65
-12.62
-14.73
-16.75
-18.51
-19.98
-21.34
-22.96
-25.16
-28.00
-31.22
-34.17
-36.05
-36.14
-34.07
-29.84
-23.86
-16.77
-9.27
-2.00
4.53
9.98
14.23
17.32
19.49
21.03
22.25
23.42
24.62
25.73
26.41
26.30
25.15
23.08
20.57
18.31
16.93
16.67
17.31
18.21
18.75
18.54
17.59
16.25
14.98
14.08
13.54
13.16
12.64
11.82
10.75
9.59
8.53
7.60
6.66
5.40
3.63
1.36
-1.13
-3.43
-5.19
-6.34
-7.10
-7.83
-8.87
-10.26
-11.83
-13.29
-14.44
-15.21
-15.70
-16.11
-16.56
-17.09
-17.68
-18.38
-19.32
-20.73
-22.92
-26.01
-29.86
-33.88
-37.14
-38.61
-37.53
-33.71
-27.57
-20.05
-12.15
-4.74
1.74
7.17
11.62
15.23
18.17
20.58
22.68
24.63
26.54
28.36
29.96
31.18
31.84
31.93
31.51
30.72
29.73
28.67
27.61
26.50
25.23
23.64
21.66
19.33
16.82
14.44
12.39
10.76
9.48
8.30
6.99
5.40
3.55
1.60
-0.25
-1.85
-3.16
-4.31
-5.43
-6.64
-7.95
-9.27
-10.50
-11.53
-12.41
-13.24
-14.18
-15.33
-16.74
-18.34
-20.01
-21.59
-22.90
-23.83
-24.41
-24.83
-25.40
-26.44
-28.13
-30.43
-33.07
-35.58
-37.44
-38.12
-37.11
-34.04
-28.76
-21.60
-13.26
-4.76
2.93
9.13
13.66
16.77
18.91
20.62
22.25
24.00
25.84
27.57
28.85
29.32
28.77
27.21
24.93
22.37
19.98
18.10
16.92
16.47
16.70
17.44
18.34
18.97
18.94
18.05
16.31
13.97
11.43
9.03
7.04
5.52
4.44
3.60
2.82
1.88
0.69
-0.76
-2.45
-4.32
-6.35
-8.52
-10.78
-12.98
-14.96
-16.58
-17.81
-18.79
-19.75
-21.00
-22.76
-25.16
-28.11
-31.29
-34.17
-36.10
-36.46
-34.77
-30.82
-24.75
-16.99
-8.28
0.47
8.37
14.82
19.65
23.20
26.05
28.69
31.31
33.70
35.46
36.28
36.12
35.16
33.72
32.09
30.43
28.81
27.28
25.95
24.92
24.24
23.85
23.56
23.17
22.45
21.22
19.40
17.00
14.19
11.24
8.42
5.92
3.75
1.77
-0.20
-2.26
-4.35
-6.25
-7.76
-8.77
-9.37
-9.85
-10.51
-11.54
-12.99
-14.74
-16.55
-18.25
-19.81
-21.31
-22.96
-24.96
-27.37
-30.12
-33.05
-35.98
-38.74
-41.11
-42.70
-42.93
-41.21
-37.16
-30.87
-23.00
-14.61
-6.75
-0.14
5.04
9.08
12.49
15.74
19.00
22.16
24.89
26.82
27.72
27.61
26.76
25.61
24.56
23.85
23.53
23.48
23.44
23.20
22.57
21.54
20.25
18.97
17.98
17.48
17.43
17.63
17.74
17.52
16.87
15.77
14.25
12.38
10.25
8.09
6.26
5.11
4.78
5.13
5.72
6.06
5.78
4.72
3.02
0.96
-1.11
-2.92
-4.30
-5.19
-5.74
-6.25
-7.09
-8.58
-10.83
-13.71
-16.96
-20.24
-23.28
-25.95
-28.29
-30.46
-32.67
-35.10
-37.72
-40.24
-42.05
-42.45
-40.76
-36.62
-30.11
-21.77
-12.50
-3.37
4.66
10.94
15.27
17.87
19.26
19.97
20.38
20.65
20.78
20.70
20.39
19.85
19.07
18.01
16.61
14.86
12.98
11.30
10.18
9.81
10.08
10.61
10.91
10.61
9.56
7.99
6.26
4.80
3.92
3.64
3.78
3.97
3.89
3.39
2.48
1.36
0.23
-0.79
-1.71
-2.61
-3.56
-4.64
-5.86
-7.23
-8.73
-10.34
-11.94
-13.42
-14.66
-15.64
-16.50
-17.46
-18.80
-20.73
-23.34
-26.58
-30.19
-33.65
-36.22
-37.07
-35.57
-31.48
-25.13
-17.29
-9.03
-1.35
5.05
9.90
13.39
16.00
18.28
20.61
23.11
25.58
27.66
28.99
29.39
28.93
27.86
26.50
25.15
24.03
23.24
22.91
23.07
23.68
24.58
25.53
26.28
26.59
26.34
25.50
24.18
22.57
20.85
19.21
17.68
16.23
14.74
13.04
11.00
8.56
5.72
2.60
-0.60
-3.66
-6.42
-8.83
-11.02
-13.19
-15.50
-17.99
-20.56
-23.08
-25.54
-28.09
-30.95
-34.28
-37.95
-41.60
-44.61
-46.27
-46.02
-43.46
-38.50
-31.46
-23.01
-14.07
-5.59
1.70
7.50
11.80
14.90
17.09
18.66
19.82
20.78
21.71
22.72
23.74
24.56
24.89
24.56
23.63
22.35
21.10
20.12
19.50
19.12
18.71
18.05
17.00
15.57
13.90
12.16
10.54
9.11
7.87
6.65
5.39
4.05
2.78
1.79
1.20
0.90
0.59
-0.06
-1.25
-2.87
-4.55
-5.89
-6.68
-7.02
-7.39
-8.37
-10.30
-13.12
-16.35
-19.30
-21.41
-22.51
-22.84
-22.88
-23.15
-23.93
-25.32
-27.29
-29.75
-32.59
-35.51
-37.91
-38.94
-37.74
-33.81
-27.28
-18.93
-9.92
-1.49
5.47
10.58
14.01
16.22
17.81
19.27
20.84
22.57
24.30
25.86
27.01
27.51
27.17
25.88
23.83
21.36
19.06
17.47
16.86
17.16
17.92
18.60
18.77
18.23
17.06
15.44
13.59
11.65
9.70
7.84
6.11
4.55
3.08
1.61
0.04
-1.72
-3.63
-5.63
-7.56
-9.32
-10.83
-12.05
-13.06
-13.89
-14.64
-15.33
-15.99
-16.71
-17.61
-18.81
-20.25
-21.70
-22.78
-23.21
-23.03
-22.67
-22.84
-24.15
-26.81
-30.43
-34.23
-37.25
-38.70
-38.09
-35.30
-30.47
-23.96
-16.34
-8.29
-0.56
6.27
11.82
16.06
19.20
21.56
23.48
25.11
26.56
27.77
28.62
28.96
28.68
27.78
26.40
24.89
23.59
22.75
22.45
22.49
22.56
22.44
22.01
21.39
20.76
20.19
19.68
19.06
18.17
17.01
15.74
14.62
13.87
13.44
13.01
12.12
10.36
7.51
3.71
-0.71
-5.30
-9.61
-13.36
-16.45
-18.91
-20.93
-22.73
-24.56
-26.55
-28.70
-30.85
-32.87
-34.73
-36.53
-38.50
-40.82
-43.43
-46.05
-48.18
-49.25
-48.72
-46.28
-41.92
-35.95
-28.86
-21.20
-13.43
-5.84
1.38
8.07
14.02
19.00
22.86
25.63
27.52
28.78
29.63
30.11
30.18
29.81
29.10
28.26
27.54
27.09
26.92
26.93
26.90
26.65
26.11
25.28
24.28
23.20
22.15
21.09
19.98
18.72
17.31
15.75
14.15
12.57
11.10
9.81
8.82
8.19
7.97
8.05
8.24
8.35
8.24
7.92
7.45
6.91
6.29
5.59
4.72
3.64
2.28
0.50
-1.81
-4.72
-8.18
-12.04
-16.15
-20.48
-25.12
-30.17
-35.49
-40.65
-45.01
-47.90
-48.84
-47.73
-44.78
-40.31
-34.77
-28.55
-22.06
-15.76
-10.05
-5.17
-1.18
2.07
4.92
7.64
10.43
13.34
16.22
18.84
20.95
22.37
23.03
23.03
22.58
21.95
21.36
20.94
20.75
20.80
21.08
21.58
22.23
22.91
23.50
23.90
24.09
24.09
23.97
23.76
23.39
22.75
21.60
19.78
17.20
13.97
10.32
6.59
3.07
-0.13
-3.14
-6.25
-9.87
-14.25
-19.46
-25.24
-31.20
-36.93
-42.08
-46.51
-50.23
-53.36
-56.03
-58.26
-59.96
-60.86
-60.63
-58.95
-55.71
-50.97
-45.02
-38.31
-31.35
-24.63
-18.52
-13.27
-8.89
-5.27
-2.19
0.59
3.37
6.41
9.94
14.06
18.69
23.50
28.01
31.74
34.37
35.88
36.43
36.37
35.97
35.44
34.86
34.23
33.56
32.75
31.66
30.12
28.02
25.32
22.09
18.52
14.84
11.32
8.16
5.47
3.18
1.09
-1.10
-3.61
-6.45
-9.46
-12.36
-14.99
-17.33
-19.53
-21.72
-24.06
-26.57
-29.24
-32.03
-34.83
-37.34
-39.06
-39.43
-37.97
-34.49
-29.14
-22.38
-14.85
-7.28
-0.32
5.54
10.04
13.21
15.30
16.69
17.68
18.49
19.20
19.87
20.53
21.16
21.68
21.90
21.61
20.75
19.49
18.20
17.24
16.83
16.85
17.04
17.02
16.53
15.53
14.19
12.78
11.55
10.66
10.04
9.55
8.96
8.11
6.97
5.61
4.21
2.91
1.77
0.74
-0.35
-1.67
-3.35
-5.42
-7.69
-9.90
-11.74
-13.03
-13.87
-14.62
-15.80
-17.81
-20.76
-24.31
-27.78
-30.37
-31.39
-30.45
-27.48
-22.74
-16.63
-9.75
-2.73
3.81
9.40
13.79
17.02
19.34
21.02
22.37
23.49
24.47
25.25
25.82
26.13
26.11
25.72
24.92
23.65
21.95
19.98
18.00
16.34
15.22
14.75
14.78
14.99
15.04
14.69
13.89
12.72
11.31
9.72
7.99
6.05
3.89
1.47
-1.28
-4.39
-7.90
-11.82
-16.05
-20.48
-24.99
-29.42
-33.54
-37.10
-39.85
-41.71
-42.92
-43.94
-45.36
-47.54
-50.50
-53.82
-56.82
-58.76
-58.98
-57.05
-52.83
-46.51
-38.60
-29.85
-21.03
-12.84
-5.72
0.14
4.73
8.17
10.66
12.53
14.17
15.92
17.85
19.74
21.15
21.66
21.12
19.76
18.11
16.77
16.17
16.45
17.45
18.77
19.93
20.50
20.22
19.07
17.26
15.11
12.88
10.76
8.79
6.98
5.37
4.07
3.11
2.46
1.97
1.45
0.74
-0.21
-1.43
-2.95
-4.86
-7.31
-10.39
-13.97
-17.72
-21.00
-23.12
-23.44
-21.61
-17.70
-12.20
-5.84
0.60
6.54
11.70
16.06
19.69
22.71
25.18
27.16
28.74
30.05
31.13
31.93
32.27
31.94
30.90
29.29
27.37
25.52
24.02
22.98
22.38
22.04
21.71
21.19
20.43
19.57
18.87
18.58
18.76
19.26
19.76
19.87
19.39
18.37
17.04
15.77
14.82
14.30
14.18
14.40
14.96
15.95
17.36
18.95
20.13
19.91
17.27
11.58
2.93
-7.80
-19.10
-29.38
-37.32
-42.13
-43.62
-42.04
-38.11
-32.89
-27.64
-23.58
-21.52
-21.57
-23.06
-24.87
-25.86
-25.33
-23.23
-20.07
-16.67
-13.86
-12.26
-12.10
-13.15
-14.79
-16.18
-16.54
-15.41
-12.79
-9.18
-5.35
-2.11
-0.04
0.67
0.28
-0.61
-1.28
-1.16
-0.06
1.73
3.63
5.06
5.73
5.69
5.24
4.58
3.74
2.52
0.78
-1.44
-3.86
-6.12
-7.98
-9.47
-10.81
-12.17
-13.59
-14.90
-15.93
-16.68
-17.50
-18.88
-21.34
-25.13
-30.04
-35.50
-40.62
-44.40
-46.00
-44.85
-40.88
-34.47
-26.39
-17.56
-8.83
-0.82
6.15
11.97
16.64
20.24
22.84
24.59
25.67
26.30
26.64
26.79
26.72
26.42
25.92
25.37
24.94
24.88
25.28
26.08
27.13
28.18
29.07
29.76
30.28
30.67
30.87
30.71
29.97
28.43
25.94
22.44
17.98
12.78
7.22
1.87
-2.70
-6.12
-8.38
-9.95
-11.55
-13.85
-17.16
-21.31
-25.69
-29.57
-32.43
-34.10
-34.87
-35.22
-35.67
-36.58
-37.94
-39.50
-40.78
-41.22
-40.30
-37.61
-32.92
-26.29
-18.06
-8.88
0.41
8.93
16.02
21.30
24.83
26.89
27.99
28.55
28.84
28.86
28.37
26.99
24.42
20.68
16.25
11.98
8.76
7.19
7.30
8.52
9.95
10.67
10.17
8.47
6.12
3.96
2.82
3.10
4.60
6.47
7.53
6.74
3.64
-1.43
-7.47
-13.12
-17.20
-18.98
-18.31
-15.52
-11.36
-6.90
-3.40
-2.06
-3.74
-8.60
-15.94
-24.37
-32.14
-37.76
-40.27
-39.46
-35.75
-29.93
-22.87
-15.31
-7.80
-0.69
5.82
11.58
16.47
20.39
23.27
25.07
25.85
25.68
24.68
22.92
20.47
17.54
14.51
12.07
11.06
12.27
16.08
22.23
29.78
37.38
43.61
47.49
48.67
47.40
44.39
40.44
36.21
32.12
28.31
24.67
20.94
16.80
12.01
6.58
0.83
-4.69
-9.42
-13.12
-16.02
-18.74
-21.98
-26.11
-31.06
-36.33
-41.25
-45.27
-48.14
-49.94
-50.95
-51.52
-51.93
-52.29
-52.44
-51.93
-50.18
-46.57
-40.75
-32.75
-23.12
-12.76
-2.71
6.17
13.45
19.21
23.96
28.37
32.89
37.57
42.05
45.79
48.42
49.95
50.63
50.76
50.34
48.99
46.23
41.86
36.31
30.67
26.33
24.37
25.12
27.90
31.23
33.42
33.09
29.65
23.32
15.03
5.89
-2.98
-10.66
-16.58
-20.49
-22.56
-23.19
-23.02
-22.56
-22.04
-21.27
-19.87
-17.56
-14.52
-11.44
-9.43
-9.60
-12.77
-19.12
-28.18
-38.94
-49.94
-59.48
-65.92
-67.99
-65.15
-57.72
-46.84
-34.22
-21.69
-10.78
-2.40
3.20
6.35
7.74
8.20
8.40
8.72
9.24
9.77
9.90
9.25
7.60
4.98
1.70
-1.68
-4.51
-6.25
-6.58
-5.55
-3.52
-1.02
1.45
3.56
5.23
6.51
7.50
8.19
8.50
8.29
7.49
6.21
4.67
3.17
1.95
1.15
0.69
0.36
-0.15
-1.08
-2.56
-4.63
-7.28
-10.49
-14.20
-18.18
-21.87
-24.42
-24.94
-22.75
-17.79
-10.66
-2.50
5.44
12.11
16.97
20.04
21.73
22.67
23.46
24.50
25.94
27.64
29.28
30.53
31.14
30.99
30.09
28.55
26.53
24.25
21.98
19.99
18.46
17.42
16.66
15.86
14.69
12.88
10.38
7.31
4.00
0.87
-1.67
-3.41
-4.35
-4.75
-4.97
-5.37
-6.12
-7.28
-8.79
-10.62
-12.65
-14.71
-16.55
-17.91
-18.72
-19.20
-19.82
-21.16
-23.52
-26.77
-30.31
-33.26
-34.71
-34.04
-31.10
-26.22
-20.10
-13.57
-7.38
-1.99
2.47
6.06
8.96
11.31
13.21
14.76
16.11
17.39
18.67
19.86
20.74
21.10
20.84
20.03
18.89
17.69
16.63
15.80
15.18
14.64
14.08
13.48
12.92
12.52
12.37
12.40
12.38
12.00
11.05
9.55
7.76
6.04
4.70
3.82
3.22
2.63
1.83
0.68
-0.80
-2.53
-4.40
-6.29
-8.11
-9.82
-11.41
-13.03
-14.91
-17.24
-20.02
-22.95
-25.45
-26.83
-26.50
-24.14
-19.81
-13.88
-6.94
0.32
7.34
13.68
19.07
23.32
26.32
28.03
28.55
28.12
27.07
25.73
24.28
22.70
20.85
18.63
16.04
13.27
10.58
8.17
6.11
4.43
3.13
2.27
1.90
1.97
2.21
2.22
1.55
-0.17
-3.06
-6.95
-11.38
-15.86
-19.95
-23.38
-26.15
-28.42
-30.45
-32.33
-34.02
-35.33
-36.07
-36.22
-35.95
-35.60
-35.49
-35.79
-36.38
-36.88
-36.75
-35.40
-32.41
-27.71
-21.51
-14.35
-6.89
0.24
6.62
12.02
16.41
19.93
22.74
24.99
26.79
28.07
28.64
28.29
26.91
24.71
22.17
19.87
18.25
17.42
17.15
17.06
16.85
16.43
15.92
15.51
15.34
15.35
15.33
15.02
14.15
12.58
10.32
7.58
4.68
1.87
-0.70
-3.08
-5.46
-7.99
-10.73
-13.65
-16.61
-19.60
-22.66
-25.84
-29.09
-32.14
-34.46
-35.51
-34.87
-32.46
-28.54
-23.63
-18.28
-12.93
-7.78
-2.85
1.90
6.34
10.28
13.45
15.70
17.06
17.72
17.98
18.08
18.12
18.10
17.92
17.47
16.68
15.50
13.98
12.27
10.62
9.32
8.55
8.31
8.32
8.21
7.65
6.52
4.96
3.22
1.47
-0.21
-1.86
-3.52
-5.09
-6.41
-7.38
-8.02
-8.52
-9.13
-10.07
-11.46
-13.34
-15.69
-18.45
-21.51
-24.66
-27.48
-29.44
-29.95
-28.57
-25.20
-20.09
-13.88
-7.42
-1.53
3.25
6.81
9.44
11.62
13.80
16.14
18.49
20.42
21.47
21.28
19.85
17.47
14.67
12.02
9.90
8.45
7.50
6.77
5.99
4.96
3.60
1.95
0.03
-2.07
-4.26
-6.37
-8.22
-9.71
-10.81
-11.60
-12.15
-12.42
-12.27
-11.50
-9.92
-7.47
-4.25
-0.46
3.64
7.74
11.49
14.48
16.26
16.46
14.76
11.06
5.61
-1.01
-7.92
-14.14
-18.80
-21.32
-21.53
-19.62
-15.99
-11.13
-5.64
-0.03
5.30
10.09
14.32
18.05
21.39
24.31
26.62
28.07
28.48
27.88
26.39
24.30
21.87
19.29
16.71
14.16
11.66
9.07
6.21
2.86
-1.07
-5.44
-9.91
-14.05
-17.54
-20.22
-22.16
-23.50
-24.43
-25.10
-25.66
-26.26
-27.03
-27.98
-29.00
-29.86
-30.30
-30.06
-29.15
-27.65
-25.82
-23.91
-22.15
-20.66
-19.55
-18.89
-18.74
-19.25
-20.47
-22.34
-24.52
-26.40
-27.20
-26.22
-23.09
-17.90
-11.22
-3.81
3.56
10.33
16.18
21.04
24.90
27.84
29.97
31.45
32.44
33.08
33.43
33.44
33.00
32.01
30.51
28.71
26.90
25.44
24.52
24.16
24.25
24.53
24.79
24.78
24.29
23.15
21.27
18.76
15.91
13.12
10.77
9.00
7.67
6.38
4.74
2.54
-0.23
-3.37
-6.63
-9.85
-12.94
-15.88
-18.65
-21.21
-23.58
-25.84
-28.10
-30.51
-33.08
-35.65
-37.80
-38.87
-38.20
-35.24
-29.85
-22.42
-13.76
-4.91
3.26
10.16
15.63
19.77
22.81
25.04
26.73
28.13
29.43
30.70
31.82
32.59
32.82
32.46
31.59
30.36
28.88
27.23
25.42
23.54
21.72
20.08
18.65
17.30
15.81
14.03
11.86
9.41
6.76
4.00
1.18
-1.72
-4.61
-7.39
-9.89
-12.00
-13.71
-15.17
-16.61
-18.26
-20.26
-22.59
-25.06
-27.41
-29.40
-30.93
-32.11
-33.21
-34.60
-36.54
-39.14
-42.20
-45.23
-47.54
-48.33
-46.96
-43.03
-36.68
-28.42
-19.15
-9.83
-1.27
6.01
11.82
16.26
19.59
22.10
24.11
25.88
27.51
28.97
30.06
30.58
30.36
29.36
27.67
25.50
23.20
21.14
19.70
19.10
19.37
20.23
21.24
21.92
21.97
21.37
20.31
19.11
18.06
17.29
16.78
16.40
15.98
15.33
14.31
12.79
10.69
7.99
4.76
1.22
-2.35
-5.60
-8.31
-10.46
-12.27
-14.08
-16.23
-18.93
-22.17
-25.94
-30.17
-34.82
-39.65
-44.15
-47.53
-48.87
-47.56
-43.40
-36.85
-28.76
-20.12
-11.82
-4.45
1.72
6.65
10.50
13.53
15.99
18.09
19.97
21.63
23.01
23.98
24.37
24.06
23.05
21.55
19.92
18.58
17.78
17.50
17.43
17.15
16.34
14.95
13.09
10.95
8.69
6.39
4.04
1.71
-0.49
-2.51
-4.28
-5.87
-7.31
-8.62
-9.79
-10.80
-11.67
-12.52
-13.48
-14.60
-15.84
-17.12
-18.35
-19.59
-21.01
-22.80
-25.08
-27.83
-30.87
-33.91
-36.62
-38.68
-39.72
-39.42
-37.46
-33.67
-28.06
-20.96
-12.97
-4.91
2.49
8.71
13.62
17.44
20.56
23.33
25.91
28.26
30.18
31.51
32.20
32.31
31.94
31.22
30.24
29.10
27.94
26.85
25.92
25.13
24.39
23.52
22.31
20.56
18.13
15.07
11.63
8.22
5.19
2.80
0.99
-0.51
-2.04
-3.87
-6.10
-8.69
-11.56
-14.66
-18.01
-21.54
-25.13
-28.58
-31.75
-34.61
-37.37
-40.32
-43.81
-47.99
-52.74
-57.60
-61.82
-64.53
-65.03
-63.04
-58.81
-53.09
-46.85
-41.08
-36.45
-33.19
-31.08
-29.51
-27.68
-24.77
-20.10
-13.24
-4.22
6.54
18.29
30.09
40.98
50.20
57.36
62.48
66.05
68.72
71.11
73.52
75.86
77.78
78.91
79.02
78.03
75.97
72.87
68.71
63.49
57.25
50.15
42.47
34.58
26.93
19.97
14.11
9.54
6.14
3.55
1.32
-0.85
-3.02
-5.10
-7.04
-8.95
-11.14
-13.91
-17.38
-21.41
-25.72
-30.10
-34.57
-39.28
-44.26
-49.19
-53.32
-55.64
-55.23
-51.58
-44.83
-35.76
-25.55
-15.44
-6.44
0.96
6.78
11.45
15.45
19.14
22.55
25.46
27.57
28.65
28.68
27.82
26.32
24.42
22.38
20.48
19.00
18.14
17.93
18.23
18.74
19.11
19.08
18.50
17.42
15.95
14.27
12.55
10.94
9.54
8.45
7.69
7.22
6.88
6.46
5.79
4.85
3.78
2.80
2.15
1.85
1.70
1.35
0.47
-1.13
-3.42
-6.25
-9.46
-12.85
-16.28
-19.55
-22.44
-24.79
-26.50
-27.79
-29.05
-30.75
-33.27
-36.67
-40.50
-43.93
-45.99
-45.76
-42.84
-37.39
-30.08
-21.87
-13.71
-6.30
-0.04
4.93
8.71
11.50
13.61
15.37
17.02
18.61
19.98
20.83
20.91
20.16
18.75
17.01
15.30
13.90
12.97
12.53
12.51
12.72
12.93
12.90
12.48
11.66
10.49
9.03
7.32
5.39
3.32
1.30
-0.42
-1.64
-2.32
-2.65
-2.89
-3.31
-4.04
-5.06
-6.30
-7.73
-9.33
-11.09
-12.92
-14.63
-16.04
-17.08
-17.82
-18.53
-19.56
-21.17
-23.43
-26.06
-28.49
-29.95
-29.73
-27.37
-22.86
-16.64
-9.45
-2.13
4.65
10.47
15.14
18.69
21.25
22.98
24.07
24.76
25.26
25.75
26.31
26.82
27.01
26.59
25.35
23.42
21.21
19.32
18.25
18.17
18.83
19.67
20.17
20.00
19.16
17.83
16.15
14.15
11.79
9.07
6.22
3.56
1.41
-0.13
-1.23
-2.23
-3.47
-5.20
-7.45
-10.04
-12.69
-15.13
-17.16
-18.77
-20.09
-21.31
-22.62
-24.06
-25.64
-27.36
-29.30
-31.63
-34.50
-37.91
-41.47
-44.56
-46.31
-45.98
-43.07
-37.61
-30.11
-21.45
-12.67
-4.59
2.36
8.21
13.28
17.91
22.25
26.21
29.59
32.18
33.90
34.81
35.01
34.69
34.00
33.16
32.35
31.72
31.33
31.20
31.29
31.57
31.97
32.31
32.34
31.83
30.59
28.67
26.21
23.39
20.30
16.91
13.16
9.09
4.83
0.62
-3.24
-6.51
-9.05
-10.87
-12.11
-13.08
-14.11
-15.43
-17.08
-18.91
-20.70
-22.36
-23.89
-25.37
-26.83
-28.18
-29.25
-30.05
-30.80
-31.92
-33.84
-36.64
-39.95
-43.01
-44.87
-44.80
-42.45
-37.95
-31.77
-24.59
-17.14
-10.05
-3.76
1.51
5.77
9.15
11.82
13.89
15.37
16.24
16.45
16.03
15.05
13.67
12.03
10.32
8.63
7.00
5.43
3.85
2.28
0.77
-0.49
-1.20
-0.97
0.51
3.42
7.61
12.52
17.19
20.55
21.82
20.98
18.88
16.88
16.36
18.09
21.95
27.01
31.92
35.24
35.80
33.02
27.04
18.76
9.61
1.19
-5.27
-9.22
-10.83
-10.76
-9.81
-8.63
-7.67
-7.31
-7.75
-9.04
-10.79
-12.29
-12.75
-11.68
-9.15
-5.66
-1.98
1.27
3.75
5.37
6.28
6.72
7.10
7.85
9.38
11.90
15.25
18.88
21.88
23.28
22.34
18.84
13.26
6.70
0.69
-3.30
-4.31
-2.19
2.45
8.39
14.29
18.88
21.31
21.13
18.35
13.43
7.21
0.87
-4.44
-7.90
-9.33
-9.22
-8.61
-8.65
-10.20
-13.51
-18.32
-24.00
-29.95
-35.79
-41.45
-46.98
-52.40
-57.51
-62.04
-65.69
-68.28
-69.60
-69.38
-67.23
-62.81
-56.01
-47.13
-36.90
-26.17
-15.62
-5.47
4.41
14.37
24.61
35.11
45.57
55.57
64.65
72.46
78.62
82.78
84.64
84.01
80.93
75.68
68.76
60.79
52.36
43.91
35.67
27.62
19.64
11.61
3.56
-4.41
-12.11
-19.49
-26.62
-33.72
-40.95
-48.24
-55.18
-61.01
-64.76
-65.50
-62.65
-56.19
-46.88
-36.20
-26.04
-18.24
-13.93
-13.16
-14.82
-16.97
-17.61
-15.36
-10.00
-2.44
5.65
12.53
17.10
19.24
19.75
19.97
21.07
23.66
27.55
31.97
35.95
38.63
39.38
37.84
33.84
27.46
19.17
10.02
1.31
-5.78
-10.76
-14.21
-17.55
-22.37
-29.62
-39.01
-49.03
-57.60
-62.90
-64.07
-61.34
-55.83
-48.92
-41.84
-35.38
-29.87
-25.27
-21.18
-16.94
-11.74
-4.95
3.58
13.31
23.12
31.79
38.49
43.11
46.11
48.03
49.13
49.20
47.77
44.59
39.87
34.24
28.38
22.71
17.22
11.70
5.97
0.10
-5.67
-11.01
-15.73
-19.83
-23.29
-26.08
-28.08
-29.13
-29.17
-28.36
-27.09
-25.97
-25.72
-26.86
-29.57
-33.36
-37.04
-38.97
-37.56
-31.87
-22.07
-9.47
3.87
15.74
24.44
29.20
30.27
28.73
26.19
24.33
24.44
27.09
31.98
38.02
43.79
47.91
49.49
48.27
44.48
38.68
31.65
24.26
17.44
12.14
9.02
8.16
8.91
10.03
10.01
7.68
2.57
-4.90
-13.75
-22.89
-31.52
-39.40
-46.71
-53.62
-60.05
-65.42
-68.87
-69.55
-67.05
-61.51
-53.53
-43.91
-33.38
-22.51
-11.74
-1.56
7.52
14.96
20.52
24.33
26.91
28.85
30.51
31.67
31.66
29.76
25.66
19.77
13.15
7.01
2.27
-0.83
-2.59
-3.46
-3.71
-3.20
-1.60
1.32
5.39
10.06
14.63
18.50
21.52
23.87
26.01
28.25
30.71
33.16
35.17
36.38
36.62
35.91
34.46
32.44
29.99
27.12
23.80
19.80
14.87
8.63
0.71
-8.99
-20.19
-32.10
-43.57
-53.38
-60.52
-64.32
-64.53
-61.22
-54.78
-45.89
-35.54
-24.89
-15.01
-6.59
0.20
5.64
10.23
14.38
18.22
21.60
24.28
26.06
26.94
27.10
26.83
26.40
26.02
25.72
25.47
25.21
24.93
24.62
24.36
24.18
24.11
24.20
24.50
25.15
26.23
27.70
29.31
30.61
31.05
30.22
27.95
24.31
19.52
13.83
7.48
0.72
-6.01
-12.20
-17.30
-20.98
-23.28
-24.58
-25.45
-26.30
-27.22
-27.92
-27.98
-27.09
-25.33
-23.21
-21.46
-20.70
-21.14
-22.41
-23.66
-23.91
-22.36
-18.68
-13.07
-6.08
1.54
9.04
15.82
21.45
25.66
28.47
30.07
30.80
31.09
31.25
31.40
31.40
30.92
29.56
26.98
23.11
18.23
12.96
8.10
4.36
2.17
1.50
1.96
2.99
4.02
4.64
4.65
4.06
2.99
1.68
0.37
-0.83
-1.95
-3.21
-4.90
-7.26
-10.41
-14.26
-18.55
-22.92
-26.91
-30.12
-32.27
-33.31
-33.51
-33.37
-33.49
-34.39
-36.28
-39.01
-42.15
-45.06
-46.98
-47.25
-45.45
-41.52
-35.83
-29.10
-22.13
-15.56
-9.76
-4.78
-0.51
3.19
6.49
9.47
12.27
14.98
17.56
19.88
21.65
22.61
22.60
21.69
20.10
18.20
16.30
14.66
13.37
12.35
11.42
10.43
9.31
8.12
7.09
6.35
5.93
5.68
5.34
4.69
3.64
2.26
0.67
-0.96
-2.53
-3.98
-5.21
-6.22
-7.04
-7.78
-8.70
-10.01
-11.88
-14.28
-16.99
-19.67
-21.92
-23.44
-24.07
-23.93
-23.33
-22.76
-22.62
-23.16
-24.25
-25.42
-26.00
-25.28
-22.73
-18.20
-11.94
-4.58
3.08
10.30
16.55
21.65
25.71
28.94
31.60
33.81
35.62
37.07
38.23
39.18
39.92
40.28
39.99
38.81
36.76
34.10
31.35
28.95
27.18
25.95
24.94
23.70
21.89
19.37
16.25
12.84
9.56
6.78
4.76
3.53
2.94
2.66
2.33
1.64
0.45
-1.21
-3.18
-5.15
-6.92
-8.28
-9.21
-9.83
-10.40
-11.31
-12.94
-15.62
-19.34
-23.67
-27.78
-30.68
-31.64
-30.59
-28.30
-26.14
-25.54
-27.34
-31.45
-36.82
-41.85
-44.99
-45.18
-42.08
-36.04
-27.85
-18.52
-9.05
-0.33
6.95
12.38
15.82
17.45
17.70
17.17
16.43
15.84
15.43
14.88
13.74
11.70
8.86
5.77
3.12
1.47
0.90
1.04
1.26
1.01
0.09
-1.36
-3.07
-4.81
-6.59
-8.56
-10.87
-13.58
-16.51
-19.38
-21.91
-23.98
-25.62
-26.99
-28.24
-29.39
-30.33
-30.88
-30.91
-30.47
-29.79
-29.12
-28.69
-28.52
-28.51
-28.47
-28.26
-27.79
-27.13
-26.35
-25.60
-25.00
-24.69
-24.70
-24.96
-25.17
-24.91
-23.77
-21.44
-17.95
-13.59
-8.89
-4.48
-0.95
1.30
2.17
1.85
0.85
-0.25
-0.90
-0.75
0.26
2.05
4.41
7.19
10.33
13.72
17.23
20.69
23.92
26.82
29.38
31.69
33.87
35.97
37.98
39.83
41.36
42.46
43.16
43.61
43.98
44.31
44.33
43.42
40.87
36.28
29.79
22.19
14.62
8.14
3.34
0.27
-1.30
-1.63
-0.85
1.05
3.93
7.38
10.70
13.12
14.01
13.13
10.54
6.57
1.61
-3.96
-9.71
-15.05
-19.07
-20.66
-18.65
-12.27
-1.43
13.11
29.85
46.91
62.51
75.42
85.13
91.77
95.88
98.06
98.71
97.85
95.29
90.76
84.17
75.65
65.48
54.11
42.02
29.80
18.19
8.08
0.31
-4.64
-6.87
-7.09
-6.39
-5.96
-6.70
-9.12
-13.37
-19.28
-26.54
-34.72
-43.34
-52.04
-60.68
-69.33
-78.08
-86.85
-95.22
-102.51
-107.99
-111.26
-112.45
-112.22
-111.58
-111.63
-113.36
-117.39
-123.85
-132.17
-141.02
-148.44
-152.17
-150.17
-141.08
-124.60
-101.46
-73.28
-42.27
-10.80
18.98
45.50
67.86
85.96
100.16
111.15
119.58
126.00
130.69
133.63
134.55
132.95
128.30
120.20
108.67
94.20
77.83
60.95
45.04
31.38
20.75
13.26
8.34
4.94
1.96
-1.34
-4.96
-8.15
-9.72
-8.54
-3.99
3.68
13.45
23.68
32.59
38.72
41.26
40.26
36.49
31.12
25.23
19.49
13.88
7.81
0.35
-9.39
-21.92
-37.02
-53.63
-69.91
-83.58
-92.39
-94.73
-89.98
-78.64
-62.01
-41.87
-19.99
2.07
23.03
41.81
57.40
68.87
75.51
77.03
73.75
66.74
57.63
48.22
39.92
33.28
27.82
22.24
15.09
5.39
-6.83
-20.49
-33.87
-45.11
-52.79
-56.14
-55.06
-49.87
-41.13
-29.48
-15.70
-0.67
14.57
28.93
41.36
51.00
57.22
59.67
58.28
53.30
45.40
35.59
25.02
14.74
5.30
-3.32
-11.55
-19.95
-28.76
-37.76
-46.20
-53.05
-57.08
-57.20
-52.55
-42.86
-28.60
-11.09
7.65
25.27
39.64
49.37
54.04
54.22
51.24
46.73
42.28
38.97
37.14
36.29
35.31
32.94
28.30
21.20
12.28
2.83
-5.67
-11.80
-14.54
-13.47
-8.79
-1.45
7.03
14.79
20.11
21.89
19.96
15.14
8.92
3.00
-1.25
-3.12
-2.73
-0.95
0.89
1.39
-0.51
-5.08
-11.74
-19.16
-25.74
-30.11
-31.63
-30.69
-28.48
-26.73
-26.97
-30.13
-36.14
-44.07
-52.36
-59.27
-63.30
-63.44
-59.31
-51.20
-40.08
-27.38
-14.80
-3.93
4.13
9.01
11.07
11.12
10.10
8.72
7.32
5.99
4.70
3.47
2.44
1.83
1.87
2.73
4.39
6.78
9.78
13.27
17.16
21.23
25.07
27.98
29.16
27.86
23.77
17.17
8.84
-0.08
-8.49
-15.52
-20.64
-23.66
-24.67
-24.03
-22.30
-20.20
-18.39
-17.33
-17.15
-17.67
-18.51
-19.24
-19.63
-19.68
-19.74
-20.27
-21.68
-24.09
-27.12
-29.95
-31.53
-30.98
-27.85
-22.31
-15.01
